{
    "AcquisitionMatrixPE": 96,
    "AcquisitionNumber": 1,
    "AcquisitionTime": "07:28:31.162500",
    "BandwidthPerPixelPhaseEncode": 33.602,
    "BaseResolution": 96,
    "BodyPartExamined": "BRAIN",
    "ConsistencyInfo": "N4_VD11D_LATEST_20110129",
    "ConversionSoftware": "dcm2niix",
    "ConversionSoftwareVersion": "v1.0.20210317",
    "DerivedVendorReportedEchoSpacing": 0.000620003,
    "DeviceSerialNumber": "45239",
    "DwellTime": 2.6e-06,
    "EchoTime": 0.03,
    "EchoTrainLength": 48,
    "EffectiveEchoSpacing": 0.000310001,
    "FlipAngle": 63,
    "ImageComments": "Unaliased MB4/PE3",
    "ImageOrientationPatientDICOM": [
        0.998248,
        0.0100775,
        0.0583129,
        0.0240298,
        0.831468,
        -0.555053
    ],
    "ImageType": [
        "ORIGINAL",
        "PRIMARY",
        "M",
        "ND",
        "NORM",
        "MOSAIC"
    ],
    "ImagingFrequency": 123.193,
    "InPlanePhaseEncodingDirectionDICOM": "COL",
    "InstitutionAddress": "E 24th St. 100,Austin,Southmiddle,US,78712",
    "InstitutionName": "Univ of Texas at Austin",
    "InstitutionalDepartmentName": "IRC",
    "MRAcquisitionType": "2D",
    "MagneticFieldStrength": 3,
    "Manufacturer": "Siemens",
    "ManufacturersModelName": "Skyra",
    "Modality": "MR",
    "MultibandAccelerationFactor": 4,
    "ParallelReductionFactorInPlane": 2,
    "PartialFourier": 1,
    "PatientPosition": "HFS",
    "PercentPhaseFOV": 100,
    "PercentSampling": 100,
    "PhaseEncodingDirection": "j-",
    "PhaseEncodingSteps": 96,
    "PhaseResolution": 1,
    "PixelBandwidth": 2005,
    "ProcedureStepDescription": "Poldrack2^self-scanning",
    "ProtocolName": "Resting State fMRI MBEPI_matrix96_BW2004",
    "PulseSequenceDetails": "%CustomerSeq%\\cmrr_mbep2d_bold",
    "ReceiveCoilActiveElements": "HEA;HEP",
    "ReceiveCoilName": "Head_32",
    "ReconMatrixPE": 96,
    "RefLinesPE": 94,
    "RepetitionTime": 1.16,
    "SAR": 0.10049,
    "ScanOptions": "FS",
    "ScanningSequence": "EP",
    "SequenceName": "epfid2d1_96",
    "SequenceVariant": "SK",
    "SeriesDescription": "Resting State fMRI MBEPI_matrix96_BW2004",
    "SeriesNumber": 9,
    "ShimSetting": [
        -2773,
        8072,
        -15438,
        153,
        -198,
        100,
        256,
        -143
    ],
    "SliceThickness": 2,
    "SliceTiming": [
        0,
        0.5,
        0.9975,
        0.3575,
        0.855,
        0.215,
        0.7125,
        0.0725,
        0.57,
        1.07,
        0.4275,
        0.9275,
        0.285,
        0.785,
        0.1425,
        0.6425,
        0,
        0.5,
        0.9975,
        0.3575,
        0.855,
        0.215,
        0.7125,
        0.0725,
        0.57,
        1.07,
        0.4275,
        0.9275,
        0.285,
        0.785,
        0.1425,
        0.6425,
        0,
        0.5,
        0.9975,
        0.3575,
        0.855,
        0.215,
        0.7125,
        0.0725,
        0.57,
        1.07,
        0.4275,
        0.9275,
        0.285,
        0.785,
        0.1425,
        0.6425,
        0,
        0.5,
        0.9975,
        0.3575,
        0.855,
        0.215,
        0.7125,
        0.0725,
        0.57,
        1.07,
        0.4275,
        0.9275,
        0.285,
        0.785,
        0.1425,
        0.6425
    ],
    "SoftwareVersions": "syngo MR D11",
    "SpacingBetweenSlices": 2.4,
    "StationName": "AWP45239",
    "TaskName": "Resting fmri",
    "TotalReadoutTime": 0.0294501,
    "TxRefAmp": 348.031,
    "WipMemBlock": "98322c82-cd4b-4fd6-a5e4-bed3a38e685c||Sequence: VD11D r195; Nov 21 2012 15:36:10 by eja",
    "dcmmeta_affine": [
        [
            -2.391634464263916,
            0.05757135897874832,
            0.12978918850421906,
            110.85002899169922
        ],
        [
            -0.02414391003549099,
            1.9920581579208374,
            -1.3331557512283325,
            -68.27809143066406
        ],
        [
            0.1397079974412918,
            1.3298145532608032,
            1.9914443492889404,
            -100.05462646484375
        ],
        [
            0.0,
            0.0,
            0.0,
            1.0
        ]
    ],
    "dcmmeta_reorient_transform": [
        [
            0.0,
            -1.0,
            0.0,
            95.0
        ],
        [
            1.0,
            0.0,
            0.0,
            0.0
        ],
        [
            0.0,
            0.0,
            1.0,
            0.0
        ],
        [
            0.0,
            0.0,
            0.0,
            1.0
        ]
    ],
    "dcmmeta_shape": [
        96,
        96,
        64,
        518
    ],
    "dcmmeta_slice_dim": 2,
    "dcmmeta_version": 0.6,
    "global": {
        "const": {
            "AcquisitionMatrix": [
                96,
                0,
                0,
                96
            ],
            "AngioFlag": "N",
            "BitsAllocated": 16,
            "BitsStored": 16,
            "BodyPartExamined": "BRAIN",
            "Columns": 768,
            "EchoNumbers": 1,
            "EchoTime": 30.0,
            "EchoTrainLength": 48,
            "FlipAngle": 63.0,
            "HighBit": 15,
            "ImageOrientationPatient": [
                0.99824748938245,
                0.01007745881163,
                0.05831290393672,
                0.02402978470036,
                0.83146779291933,
                -0.555053041416
            ],
            "ImagePositionPatient": [
                -939.25248936643,
                -798.41134513785,
                426.15355261798
            ],
            "ImageType": [
                "ORIGINAL",
                "PRIMARY",
                "M",
                "ND",
                "NORM",
                "MOSAIC"
            ],
            "ImagedNucleus": "1H",
            "ImagingFrequency": 123.19334,
            "InPlanePhaseEncodingDirection": "COL",
            "MRAcquisitionType": "2D",
            "MagneticFieldStrength": 3.0,
            "Manufacturer": "SIEMENS",
            "ManufacturerModelName": "Skyra",
            "Modality": "MR",
            "NumberOfAverages": 1.0,
            "NumberOfPhaseEncodingSteps": 96,
            "PercentPhaseFieldOfView": 100.0,
            "PercentSampling": 100.0,
            "PerformedProcedureStepStartTime": "071256.062000",
            "PhotometricInterpretation": "MONOCHROME2",
            "PixelBandwidth": 2005.0,
            "PixelRepresentation": 0,
            "PixelSpacing": [
                2.3958332538605,
                2.3958332538605
            ],
            "ProtocolName": "Resting State fMRI MBEPI_matrix96_BW2004",
            "RepetitionTime": 1160.0,
            "Rows": 768,
            "SAR": 0.10049029970045,
            "SamplesPerPixel": 1,
            "ScanOptions": "FS",
            "ScanningSequence": "EP",
            "SequenceName": "epfid2d1_96",
            "SequenceVariant": "SK",
            "SeriesDescription": "Resting State fMRI MBEPI_matrix96_BW2004",
            "SeriesNumber": 9,
            "SeriesTime": "072914.125000",
            "SliceLocation": -39.100316561251,
            "SliceThickness": 2.0,
            "SmallestImagePixelValue": 0,
            "SoftwareVersions": "syngo MR D11",
            "SpacingBetweenSlices": 2.4000000015555,
            "SpecificCharacterSet": "ISO_IR 100",
            "StudyID": "1",
            "StudyTime": "071256.031000",
            "TransmitCoilName": "Body",
            "VariableFlipAngleFlag": "N",
            "WindowCenterWidthExplanation": "Algo1",
            "dBdt": 0.0
        },
        "slices": {}
    },
    "time": {
        "samples": {
            "AcquisitionNumber": [
                1,
                2,
                3,
                4,
                5,
                6,
                7,
                8,
                9,
                10,
                11,
                12,
                13,
                14,
                15,
                16,
                17,
                18,
                19,
                20,
                21,
                22,
                23,
                24,
                25,
                26,
                27,
                28,
                29,
                30,
                31,
                32,
                33,
                34,
                35,
                36,
                37,
                38,
                39,
                40,
                41,
                42,
                43,
                44,
                45,
                46,
                47,
                48,
                49,
                50,
                51,
                52,
                53,
                54,
                55,
                56,
                57,
                58,
                59,
                60,
                61,
                62,
                63,
                64,
                65,
                66,
                67,
                68,
                69,
                70,
                71,
                72,
                73,
                74,
                75,
                76,
                77,
                78,
                79,
                80,
                81,
                82,
                83,
                84,
                85,
                86,
                87,
                88,
                89,
                90,
                91,
                92,
                93,
                94,
                95,
                96,
                97,
                98,
                99,
                100,
                101,
                102,
                103,
                104,
                105,
                106,
                107,
                108,
                109,
                110,
                111,
                112,
                113,
                114,
                115,
                116,
                117,
                118,
                119,
                120,
                121,
                122,
                123,
                124,
                125,
                126,
                127,
                128,
                129,
                130,
                131,
                132,
                133,
                134,
                135,
                136,
                137,
                138,
                139,
                140,
                141,
                142,
                143,
                144,
                145,
                146,
                147,
                148,
                149,
                150,
                151,
                152,
                153,
                154,
                155,
                156,
                157,
                158,
                159,
                160,
                161,
                162,
                163,
                164,
                165,
                166,
                167,
                168,
                169,
                170,
                171,
                172,
                173,
                174,
                175,
                176,
                177,
                178,
                179,
                180,
                181,
                182,
                183,
                184,
                185,
                186,
                187,
                188,
                189,
                190,
                191,
                192,
                193,
                194,
                195,
                196,
                197,
                198,
                199,
                200,
                201,
                202,
                203,
                204,
                205,
                206,
                207,
                208,
                209,
                210,
                211,
                212,
                213,
                214,
                215,
                216,
                217,
                218,
                219,
                220,
                221,
                222,
                223,
                224,
                225,
                226,
                227,
                228,
                229,
                230,
                231,
                232,
                233,
                234,
                235,
                236,
                237,
                238,
                239,
                240,
                241,
                242,
                243,
                244,
                245,
                246,
                247,
                248,
                249,
                250,
                251,
                252,
                253,
                254,
                255,
                256,
                257,
                258,
                259,
                260,
                261,
                262,
                263,
                264,
                265,
                266,
                267,
                268,
                269,
                270,
                271,
                272,
                273,
                274,
                275,
                276,
                277,
                278,
                279,
                280,
                281,
                282,
                283,
                284,
                285,
                286,
                287,
                288,
                289,
                290,
                291,
                292,
                293,
                294,
                295,
                296,
                297,
                298,
                299,
                300,
                301,
                302,
                303,
                304,
                305,
                306,
                307,
                308,
                309,
                310,
                311,
                312,
                313,
                314,
                315,
                316,
                317,
                318,
                319,
                320,
                321,
                322,
                323,
                324,
                325,
                326,
                327,
                328,
                329,
                330,
                331,
                332,
                333,
                334,
                335,
                336,
                337,
                338,
                339,
                340,
                341,
                342,
                343,
                344,
                345,
                346,
                347,
                348,
                349,
                350,
                351,
                352,
                353,
                354,
                355,
                356,
                357,
                358,
                359,
                360,
                361,
                362,
                363,
                364,
                365,
                366,
                367,
                368,
                369,
                370,
                371,
                372,
                373,
                374,
                375,
                376,
                377,
                378,
                379,
                380,
                381,
                382,
                383,
                384,
                385,
                386,
                387,
                388,
                389,
                390,
                391,
                392,
                393,
                394,
                395,
                396,
                397,
                398,
                399,
                400,
                401,
                402,
                403,
                404,
                405,
                406,
                407,
                408,
                409,
                410,
                411,
                412,
                413,
                414,
                415,
                416,
                417,
                418,
                419,
                420,
                421,
                422,
                423,
                424,
                425,
                426,
                427,
                428,
                429,
                430,
                431,
                432,
                433,
                434,
                435,
                436,
                437,
                438,
                439,
                440,
                441,
                442,
                443,
                444,
                445,
                446,
                447,
                448,
                449,
                450,
                451,
                452,
                453,
                454,
                455,
                456,
                457,
                458,
                459,
                460,
                461,
                462,
                463,
                464,
                465,
                466,
                467,
                468,
                469,
                470,
                471,
                472,
                473,
                474,
                475,
                476,
                477,
                478,
                479,
                480,
                481,
                482,
                483,
                484,
                485,
                486,
                487,
                488,
                489,
                490,
                491,
                492,
                493,
                494,
                495,
                496,
                497,
                498,
                499,
                500,
                501,
                502,
                503,
                504,
                505,
                506,
                507,
                508,
                509,
                510,
                511,
                512,
                513,
                514,
                515,
                516,
                517,
                518
            ],
            "AcquisitionTime": [
                "072831.162500",
                "072900.162500",
                "072901.322500",
                "072902.482500",
                "072903.642500",
                "072904.802500",
                "072905.962500",
                "072907.122500",
                "072908.282500",
                "072909.442500",
                "072910.602500",
                "072911.762500",
                "072912.922500",
                "072914.082500",
                "072915.242500",
                "072916.402500",
                "072917.562500",
                "072918.722500",
                "072919.882500",
                "072921.042500",
                "072922.202500",
                "072923.362500",
                "072924.522500",
                "072925.682500",
                "072926.842500",
                "072928.002500",
                "072929.162500",
                "072930.322500",
                "072931.482500",
                "072932.642500",
                "072933.802500",
                "072934.962500",
                "072936.122500",
                "072937.282500",
                "072938.442500",
                "072939.602500",
                "072940.762500",
                "072941.922500",
                "072943.082500",
                "072944.242500",
                "072945.402500",
                "072946.562500",
                "072947.722500",
                "072948.882500",
                "072950.042500",
                "072951.202500",
                "072952.362500",
                "072953.522500",
                "072954.682500",
                "072955.842500",
                "072957.005000",
                "072958.165000",
                "072959.325000",
                "073000.485000",
                "073001.645000",
                "073002.805000",
                "073003.965000",
                "073005.125000",
                "073006.285000",
                "073007.445000",
                "073008.605000",
                "073009.765000",
                "073010.925000",
                "073012.085000",
                "073013.245000",
                "073014.405000",
                "073015.565000",
                "073016.725000",
                "073017.885000",
                "073019.045000",
                "073020.205000",
                "073021.365000",
                "073022.525000",
                "073023.685000",
                "073024.845000",
                "073026.005000",
                "073027.165000",
                "073028.325000",
                "073029.485000",
                "073030.645000",
                "073031.805000",
                "073032.965000",
                "073034.125000",
                "073035.285000",
                "073036.445000",
                "073037.605000",
                "073038.765000",
                "073039.925000",
                "073041.085000",
                "073042.245000",
                "073043.405000",
                "073044.565000",
                "073045.725000",
                "073046.885000",
                "073048.045000",
                "073049.205000",
                "073050.365000",
                "073051.525000",
                "073052.685000",
                "073053.845000",
                "073055.005000",
                "073056.165000",
                "073057.325000",
                "073058.485000",
                "073059.645000",
                "073100.805000",
                "073101.965000",
                "073103.125000",
                "073104.285000",
                "073105.445000",
                "073106.605000",
                "073107.765000",
                "073108.925000",
                "073110.085000",
                "073111.245000",
                "073112.405000",
                "073113.565000",
                "073114.725000",
                "073115.885000",
                "073117.045000",
                "073118.205000",
                "073119.365000",
                "073120.525000",
                "073121.685000",
                "073122.845000",
                "073124.005000",
                "073125.165000",
                "073126.325000",
                "073127.485000",
                "073128.645000",
                "073129.805000",
                "073130.965000",
                "073132.125000",
                "073133.285000",
                "073134.445000",
                "073135.605000",
                "073136.765000",
                "073137.925000",
                "073139.085000",
                "073140.245000",
                "073141.405000",
                "073142.565000",
                "073143.725000",
                "073144.885000",
                "073146.045000",
                "073147.205000",
                "073148.365000",
                "073149.525000",
                "073150.685000",
                "073151.845000",
                "073153.005000",
                "073154.165000",
                "073155.325000",
                "073156.485000",
                "073157.645000",
                "073158.805000",
                "073159.965000",
                "073201.125000",
                "073202.285000",
                "073203.445000",
                "073204.605000",
                "073205.765000",
                "073206.925000",
                "073208.085000",
                "073209.245000",
                "073210.405000",
                "073211.565000",
                "073212.725000",
                "073213.885000",
                "073215.045000",
                "073216.205000",
                "073217.365000",
                "073218.525000",
                "073219.685000",
                "073220.845000",
                "073222.005000",
                "073223.165000",
                "073224.325000",
                "073225.485000",
                "073226.645000",
                "073227.805000",
                "073228.965000",
                "073230.125000",
                "073231.285000",
                "073232.445000",
                "073233.605000",
                "073234.765000",
                "073235.925000",
                "073237.085000",
                "073238.245000",
                "073239.405000",
                "073240.565000",
                "073241.725000",
                "073242.885000",
                "073244.045000",
                "073245.205000",
                "073246.365000",
                "073247.525000",
                "073248.685000",
                "073249.845000",
                "073251.005000",
                "073252.165000",
                "073253.325000",
                "073254.485000",
                "073255.645000",
                "073256.805000",
                "073257.965000",
                "073259.125000",
                "073300.285000",
                "073301.445000",
                "073302.605000",
                "073303.765000",
                "073304.925000",
                "073306.085000",
                "073307.245000",
                "073308.405000",
                "073309.565000",
                "073310.725000",
                "073311.885000",
                "073313.045000",
                "073314.205000",
                "073315.365000",
                "073316.525000",
                "073317.685000",
                "073318.845000",
                "073320.005000",
                "073321.165000",
                "073322.325000",
                "073323.485000",
                "073324.645000",
                "073325.805000",
                "073326.965000",
                "073328.125000",
                "073329.285000",
                "073330.445000",
                "073331.605000",
                "073332.765000",
                "073333.925000",
                "073335.085000",
                "073336.245000",
                "073337.405000",
                "073338.565000",
                "073339.725000",
                "073340.885000",
                "073342.045000",
                "073343.205000",
                "073344.365000",
                "073345.525000",
                "073346.685000",
                "073347.845000",
                "073349.005000",
                "073350.165000",
                "073351.325000",
                "073352.485000",
                "073353.645000",
                "073354.805000",
                "073355.965000",
                "073357.125000",
                "073358.285000",
                "073359.445000",
                "073400.605000",
                "073401.765000",
                "073402.925000",
                "073404.085000",
                "073405.245000",
                "073406.405000",
                "073407.565000",
                "073408.725000",
                "073409.885000",
                "073411.045000",
                "073412.205000",
                "073413.365000",
                "073414.525000",
                "073415.685000",
                "073416.845000",
                "073418.005000",
                "073419.165000",
                "073420.325000",
                "073421.485000",
                "073422.645000",
                "073423.805000",
                "073424.965000",
                "073426.125000",
                "073427.285000",
                "073428.445000",
                "073429.605000",
                "073430.765000",
                "073431.925000",
                "073433.085000",
                "073434.245000",
                "073435.405000",
                "073436.565000",
                "073437.725000",
                "073438.885000",
                "073440.045000",
                "073441.205000",
                "073442.365000",
                "073443.525000",
                "073444.685000",
                "073445.845000",
                "073447.005000",
                "073448.167500",
                "073449.327500",
                "073450.487500",
                "073451.647500",
                "073452.807500",
                "073453.967500",
                "073455.127500",
                "073456.287500",
                "073457.447500",
                "073458.607500",
                "073459.767500",
                "073500.927500",
                "073502.087500",
                "073503.247500",
                "073504.407500",
                "073505.567500",
                "073506.727500",
                "073507.887500",
                "073509.047500",
                "073510.207500",
                "073511.367500",
                "073512.527500",
                "073513.687500",
                "073514.847500",
                "073516.007500",
                "073517.167500",
                "073518.327500",
                "073519.487500",
                "073520.647500",
                "073521.807500",
                "073522.967500",
                "073524.127500",
                "073525.287500",
                "073526.447500",
                "073527.607500",
                "073528.767500",
                "073529.927500",
                "073531.087500",
                "073532.247500",
                "073533.407500",
                "073534.567500",
                "073535.727500",
                "073536.887500",
                "073538.047500",
                "073539.207500",
                "073540.367500",
