{"AcquisitionMatrixPE": 96, "AcquisitionNumber": 1, "AcquisitionTime": "07:29:10.620000", "BaseResolution": 96, "BodyPartExamined": "BRAIN", "ConsistencyInfo": "N4_VD11D_LATEST_20110129", "ConversionSoftware": "dcm2niix", "ConversionSoftwareVersion": "v1.0.20210317", "DeviceSerialNumber": "45239", "DwellTime": 9.2e-06, "EchoNumber": 2, "EchoTime": 0.00738, "EchoTime1": 0.00492, "EchoTime2": 0.00738, "FlipAngle": 50, "ImageOrientationPatientDICOM": [0.999529, 0.0236395, 0.0195938, -0.00791542, 0.814966, -0.579454], "ImageType": ["ORIGINAL", "PRIMARY", "P", "ND", "PHASE"], "ImagingFrequency": 123.193, "InPlanePhaseEncodingDirectionDICOM": "COL", "InstitutionAddress": "E 24th St. 100,Austin,Southmiddle,US,78712", "InstitutionName": "Univ of Texas at Austin", "InstitutionalDepartmentName": "IRC", "MRAcquisitionType": "2D", "MagneticFieldStrength": 3, "Manufacturer": "Siemens", "ManufacturersModelName": "Skyra", "Modality": "MR", "PartialFourier": 1, "PatientPosition": "HFS", "PercentPhaseFOV": 100, "PercentSampling": 100, "PhaseEncodingDirection": "j-", "PhaseEncodingSteps": 96, "PhaseResolution": 1, "PixelBandwidth": 565, "ProcedureStepDescription": "Poldrack2^self-scanning", "ProtocolName": "gre_field_mapping", "PulseSequenceDetails": "%SiemensSeq%\\gre_field_mapping", "ReceiveCoilActiveElements": "HEA;HEP", "ReceiveCoilName": "Head_32", "ReconMatrixPE": 96, "RepetitionTime": 0.731, "SAR": 0.131641, "ScanningSequence": "GR", "SequenceName": "*fm2d2r", "SequenceVariant": "SP", "SeriesDescription": "gre_field_mapping", "SeriesNumber": 9, "ShimSetting": [-2760, 8030, -15426, 77, -153, -176, 191, -39], "SliceThickness": 2, "SliceTiming": [0.35938, 0, 0.375, 0.00781, 0.38281, 0.02344, 0.39844, 0.03125, 0.40625, 0.03906, 0.41406, 0.05469, 0.42969, 0.0625, 0.4375, 0.07031, 0.45312, 0.08594, 0.46094, 0.09375, 0.46875, 0.10156, 0.48438, 0.11719, 0.49219, 0.125, 0.5, 0.14062, 0.51562, 0.14844, 0.52344, 0.15625, 0.53125, 0.17188, 0.54688, 0.17969, 0.55469, 0.19531, 0.57031, 0.20312, 0.57812, 0.21094, 0.58594, 0.22656, 0.60156, 0.23438, 0.60938, 0.24219, 0.625, 0.25781, 0.63281, 0.26562, 0.64062, 0.27344, 0.65625, 0.28906, 0.66406, 0.29688, 0.67188, 0.3125, 0.6875, 0.32031, 0.69531, 0.33594, 0.71094, 0.34375, 0.71875, 0.35156], "SoftwareVersions": "syngo MR D11", "SpacingBetweenSlices": 2.4, "StationName": "AWP45239", "TxRefAmp": 348.798, "dcmmeta_affine": [[-2.3947036266326904, -0.018964027985930443, 0.07119941711425781, 116.27528381347656], [-0.0566362701356411, 1.9525229930877686, -1.3896636962890625, -61.96312713623047], [0.046943385154008865, 1.3882763385772705, 1.9554443359375, -71.6656494140625], [0.0, 0.0, 0.0, 1.0]], "dcmmeta_reorient_transform": [[0.0, -1.0, 0.0, 95.0], [1.0, 0.0, 0.0, 0.0], [0.0, 0.0, -1.0, 67.0], [0.0, 0.0, 0.0, 1.0]], "dcmmeta_shape": [96, 96, 68], "dcmmeta_slice_dim": 2, "dcmmeta_version": 0.6, "global": {"const": {"AcquisitionMatrix": [96, 0, 0, 96], "AcquisitionNumber": 1, "AngioFlag": "N", "BitsAllocated": 16, "BitsStored": 12, "BodyPartExamined": "BRAIN", "Columns": 96, "EchoNumbers": 2, "EchoTime": 7.38, "EchoTrainLength": 0, "FlipAngle": 50.0, "HighBit": 11, "ImageOrientationPatient": [0.99952851843224, 0.02363948711129, 0.01959376150142, -0.0079154205503, 0.81496615194048, -0.5794544997744], "ImageType": ["ORIGINAL", "PRIMARY", "P", "ND"], "ImagedNucleus": "1H", "ImagingFrequency": 123.193284, "InPlanePhaseEncodingDirection": "COL", "MRAcquisitionType": "2D", "MagneticFieldStrength": 3.0, "Manufacturer": "SIEMENS", "ManufacturerModelName": "Skyra", "Modality": "MR", "NumberOfAverages": 1.0, "NumberOfPhaseEncodingSteps": 96, "PercentPhaseFieldOfView": 100.0, "PercentSampling": 100.0, "PerformedProcedureStepStartTime": "070620.875000", "PhotometricInterpretation": "MONOCHROME2", "PixelBandwidth": 565.0, "PixelRepresentation": 0, "PixelSpacing": [2.3958332538605, 2.3958332538605], "ProtocolName": "gre_field_mapping", "RepetitionTime": 731.0, "RescaleIntercept": -4096.0, "RescaleSlope": 2.0, "RescaleType": "US", "Rows": 96, "SAR": 0.13164088129645, "SamplesPerPixel": 1, "ScanningSequence": "GR", "SequenceName": "*fm2d2r", "SequenceVariant": "SP", "SeriesDescription": "gre_field_mapping", "SeriesNumber": 9, "SeriesTime": "073601.640000", "SliceThickness": 2.0, "SoftwareVersions": "syngo MR D11", "SpacingBetweenSlices": 2.4, "SpecificCharacterSet": "ISO_IR 100", "StudyID": "1", "StudyTime": "070620.843000", "TransmitCoilName": "Body", "VariableFlipAngleFlag": "N", "WindowCenterWidthExplanation": "Algo1", "dBdt": 0.0}, "slices": {"AcquisitionTime": ["072910.620000", "072910.255000", "072910.632500", "072910.267500", "072910.642500", "072910.277500", "072910.652500", "072910.287500", "072910.665000", "072910.297500", "072910.675000", "072910.310000", "072910.685000", "072910.320000", "072910.697500", "072910.330000", "072910.707500", "072910.342500", "072910.717500", "072910.352500", "072910.727500", "072910.362500", "072910.740000", "072910.375000", "072910.750000", "072910.385000", "072910.760000", "072910.395000", "072910.772500", "072910.405000", "072910.782500", "072910.417500", "072910.792500", "072910.427500", "072910.805000", "072910.437500", "072910.815000", "072910.450000", "072910.825000", "072910.460000", "072910.835000", "072910.470000", "072910.847500", "072910.482500", "072910.857500", "072910.492500", "072910.867500", "072910.502500", "072910.880000", "072910.512500", "072910.890000", "072910.525000", "072910.900000", "072910.535000", "072910.912500", "072910.545000", "072910.922500", "072910.557500", "072910.932500", "072910.567500", "072910.942500", "072910.577500", "072910.955000", "072910.590000", "072910.965000", "072910.600000", "072910.975000", "072910.610000"], "ContentTime": ["073601.734000", "073601.640000", "073601.734000", "073601.640000", "073601.734000", "073601.640000", "073601.734000", "073601.640000", "073601.734000", "073601.640000", "073601.734000", "073601.656000", "073601.750000", "073601.656000", "073601.750000", "073601.656000", "073601.750000", "073601.671000", "073601.750000", "073601.671000", "073601.750000", "073601.671000", "073601.750000", "073601.671000", "073601.765000", "073601.687000", "073601.765000", "073601.687000", "073601.765000", "073601.687000", "073601.765000", "073601.687000", "073601.781000", "073601.687000", "073601.781000", "073601.687000", "073601.781000", "073601.687000", "073601.781000", "073601.687000", "073601.781000", "073601.703000", "073601.796000", "073601.703000", "073601.796000", "073601.703000", "073601.796000", "073601.703000", "073601.796000", "073601.718000", "073601.796000", "073601.718000", "073601.796000", "073601.718000", "073601.796000", "073601.718000", "073601.796000", "073601.718000", "073601.796000", "073601.718000", "073601.812000", "073601.718000", "073601.812000", "073601.734000", "073601.828000", "073601.734000", "073601.828000", "073601.734000"], "CsaImage.ICE_Dims": ["X_2_1_1_1_1_1_35_1_1_1_1_347", "X_2_1_1_1_1_1_1_1_1_2_1_347", "X_2_1_1_1_1_1_36_1_1_3_1_347", "X_2_1_1_1_1_1_2_1_1_4_1_347", "X_2_1_1_1_1_1_37_1_1_5_1_347", "X_2_1_1_1_1_1_3_1_1_6_1_347", "X_2_1_1_1_1_1_38_1_1_7_1_347", "X_2_1_1_1_1_1_4_1_1_8_1_347", "X_2_1_1_1_1_1_39_1_1_9_1_347", "X_2_1_1_1_1_1_5_1_1_10_1_347", "X_2_1_1_1_1_1_40_1_1_11_1_347", "X_2_1_1_1_1_1_6_1_1_12_1_347", "X_2_1_1_1_1_1_41_1_1_13_1_347", "X_2_1_1_1_1_1_7_1_1_14_1_347", "X_2_1_1_1_1_1_42_1_1_15_1_347", "X_2_1_1_1_1_1_8_1_1_16_1_347", "X_2_1_1_1_1_1_43_1_1_17_1_347", "X_2_1_1_1_1_1_9_1_1_18_1_347", "X_2_1_1_1_1_1_44_1_1_19_1_347", "X_2_1_1_1_1_1_10_1_1_20_1_347", "X_2_1_1_1_1_1_45_1_1_21_1_347", "X_2_1_1_1_1_1_11_1_1_22_1_347", "X_2_1_1_1_1_1_46_1_1_23_1_347", "X_2_1_1_1_1_1_12_1_1_24_1_347", "X_2_1_1_1_1_1_47_1_1_25_1_347", "X_2_1_1_1_1_1_13_1_1_26_1_347", "X_2_1_1_1_1_1_48_1_1_27_1_347", "X_2_1_1_1_1_1_14_1_1_28_1_347", "X_2_1_1_1_1_1_49_1_1_29_1_347", "X_2_1_1_1_1_1_15_1_1_30_1_347", "X_2_1_1_1_1_1_50_1_1_31_1_347", "X_2_1_1_1_1_1_16_1_1_32_1_347", "X_2_1_1_1_1_1_51_1_1_33_1_347", "X_2_1_1_1_1_1_17_1_1_34_1_347", "X_2_1_1_1_1_1_52_1_1_35_1_347", "X_2_1_1_1_1_1_18_1_1_36_1_347", "X_2_1_1_1_1_1_53_1_1_37_1_347", "X_2_1_1_1_1_1_19_1_1_38_1_347", "X_2_1_1_1_1_1_54_1_1_39_1_347", "X_2_1_1_1_1_1_20_1_1_40_1_347", "X_2_1_1_1_1_1_55_1_1_41_1_347", "X_2_1_1_1_1_1_21_1_1_42_1_347", "X_2_1_1_1_1_1_56_1_1_43_1_347", "X_2_1_1_1_1_1_22_1_1_44_1_347", "X_2_1_1_1_1_1_57_1_1_45_1_347", "X_2_1_1_1_1_1_23_1_1_46_1_347", "X_2_1_1_1_1_1_58_1_1_47_1_347", "X_2_1_1_1_1_1_24_1_1_48_1_347", "X_2_1_1_1_1_1_59_1_1_49_1_347", "X_2_1_1_1_1_1_25_1_1_50_1_347", "X_2_1_1_1_1_1_60_1_1_51_1_347", "X_2_1_1_1_1_1_26_1_1_52_1_347", "X_2_1_1_1_1_1_61_1_1_53_1_347", "X_2_1_1_1_1_1_27_1_1_54_1_347", "X_2_1_1_1_1_1_62_1_1_55_1_347", "X_2_1_1_1_1_1_28_1_1_56_1_347", "X_2_1_1_1_1_1_63_1_1_57_1_347", "X_2_1_1_1_1_1_29_1_1_58_1_347", "X_2_1_1_1_1_1_64_1_1_59_1_347", "X_2_1_1_1_1_1_30_1_1_60_1_347", "X_2_1_1_1_1_1_65_1_1_61_1_347", "X_2_1_1_1_1_1_31_1_1_62_1_347", "X_2_1_1_1_1_1_66_1_1_63_1_347", "X_2_1_1_1_1_1_32_1_1_64_1_347", "X_2_1_1_1_1_1_67_1_1_65_1_347", "X_2_1_1_1_1_1_33_1_1_66_1_347", "X_2_1_1_1_1_1_68_1_1_67_1_347", "X_2_1_1_1_1_1_34_1_1_68_1_347"], "CsaImage.ProtocolSliceNumber": [0, 1, 2, 3, 4, 5, 6, 7, 8, 9, 10, 11, 12, 13, 14, 15, 16, 17, 18, 19, 20, 21, 22, 23, 24, 25, 26, 27, 28, 29, 30, 31, 32, 33, 34, 35, 36, 37, 38, 39, 40, 41, 42, 43, 44, 45, 46, 47, 48, 49, 50, 51, 52, 53, 54, 55, 56, 57, 58, 59, 60, 61, 62, 63, 64, 65, 66, 67], "CsaImage.SlicePosition_PCS": [[-114.47372736, -123.52650786, 60.22051965], [-114.54492633, -122.13684416, 62.17596542], [-114.61612533, -120.74718046, 64.13141097], [-114.68732433, -119.35751867, 66.08685659], [-114.75852327, -117.96785498, 68.04230224], [-114.82972227, -116.57819319, 69.99774801], [-114.90092127, -115.18852949, 71.95319377], [-114.97212027, -113.7988677, 73.90863906], [-115.04331927, -112.40920401, 75.8640853], [-115.11451821, -111.01954127, 77.81953059], [-115.18571715, -109.62987852, 79.77497588], [-115.25691621, -108.24021483, 81.73042213], [-115.32811515, -106.85055208, 83.68586837], [-115.39931421, -105.46088934, 85.64131271], [-115.47051315, -104.0712266, 87.59675895], [-115.54171209, -102.68156386, 89.55220519], [-115.61291115, -101.29190064, 91.50764953], [-115.68411009, -99.90223789, 93.46309577], [-115.75530914, -98.51257491, 95.41854202], [-115.82650809, -97.12291211, 97.37398826], [-115.89770703, -95.73324925, 99.32943259], [-115.96890608, -94.34358621, 101.28487693], [-116.04010514, -92.95392347, 103.24032508], [-116.11130408, -91.56426048, 105.19576942], [-116.18250302, -90.17459774, 107.15121375], [-116.25370197, -88.78493452, 109.1066619], [-116.32490091, -87.39527178, 111.06210624], [-116.39609985, -86.00560904, 113.01755439], [-116.46729902, -84.61594629, 114.97299873], [-116.53849796, -83.22628355, 116.92844306], [-116.60969691, -81.83661986, 118.88389121], [-116.68089585, -80.44695711, 120.83933555], [-116.75209479, -79.05729437, 122.79477988], [-116.82329396, -77.66763067, 124.75022804], [-116.8944929, -76.27796889, 126.70567237], [-116.96569184, -74.88830519, 128.66112052], [-117.03689079, -73.4986434, 130.61656486], [-117.10808973, -72.1089797, 132.57200919], [-117.1792889, -70.71931791, 134.52745353], [-117.25048784, -69.32965422, 136.48289787], [-117.32168678, -67.93999052, 138.43834983], [-117.39288572, -66.55032873, 140.39379417], [-117.46408467, -65.16066504, 142.3492385], [-117.53528384, -63.77100134, 144.30468284], [-117.60648278, -62.38134146, 146.26012717], [-117.67768172, -60.99167776, 148.21557151], [-117.74888066, -59.60201407, 150.17102348], [-117.8200796, -58.21235037, 152.12646781], [-117.89127878, -56.82268667, 154.08191215], [-117.96247772, -55.43302679, 156.03735648], [-118.03367666, -54.0433631, 157.99280082], [-118.1048756, -52.6536994, 159.94824516], [-118.17607454, -51.2640357, 161.90369712], [-118.24727349, -49.87437201, 163.85914146], [-118.31847243, -48.48471213, 165.81458579], [-118.38967137, -47.09504843, 167.77003013], [-118.46087078, -45.70538473, 169.72547446], [-118.53206972, -44.31572104, 171.6809188], [-118.60326866, -42.92605734, 173.63637077], [-118.6744676, -41.53639746, 175.5918151], [-118.74566654, -40.14673376, 177.54725944], [-118.81686548, -38.75707007, 179.50270377], [-118.88806442, -37.36740637, 181.45814811], [-118.95926336, -35.97774649, 183.41360008], [-119.0304623, -34.58808279, 185.36904441], [-119.10166125, -33.1984191, 187.32448875], [-119.17286019, -31.8087554, 189.27993308], [-119.2440596, -30.4190917, 191.23537742]], "CsaImage.TimeAfterStart": [1.1, 0.735, 1.11, 0.745, 1.12, 0.755, 1.1325, 0.7675, 1.1425, 0.7775, 1.1525, 0.7875, 1.165, 0.7975, 1.175, 0.81, 1.185, 0.82, 1.1975, 0.83, 1.2075, 0.8425, 1.2175, 0.8525, 1.2275, 0.8625, 1.24, 0.875, 1.25, 0.885, 1.26, 0.895, 1.2725, 0.905, 1.2825, 0.9175, 1.2925, 0.9275, 1.305, 0.9375, 1.315, 0.95, 1.325, 0.96, 1.335, 0.97, 1.3475, 0.9825, 1.3575, 0.9925, 1.3675, 1.0025, 1.38, 1.0125, 1.39, 1.025, 1.4, 1.035, 1.4125, 1.045, 1.4225, 1.0575, 1.4325, 1.0675, 1.4425, 1.0775, 1.455, 1.09], "ImagePositionPatient": [[-114.4737273556, -123.52650785601, 60.220519650004], [-114.54492632568, -122.13684415972, 62.175965416453], [-114.61612532557, -120.74718046344, 64.131410974286], [-114.68732432545, -119.3575186745, 66.086856591723], [-114.75852326572, -117.96785497821, 68.042302238963], [-114.82972226561, -116.57819318927, 69.997748005412], [-114.90092126549, -115.18852949298, 71.953193771861], [-114.97212026537, -113.79886770404, 73.908639061473], [-115.04331926525, -112.40920400775, 75.864085304759], [-115.11451820553, -111.01954126513, 77.819530594371], [-115.18571714581, -109.62987852252, 79.774975883983], [-115.25691620529, -108.24021482623, 81.730422127269], [-115.32811514557, -106.85055208361, 83.685868370555], [-115.39931420506, -105.460889341, 85.641312706492], [-115.47051314533, -104.07122659838, 87.596758949778], [-115.54171208561, -102.68156385577, 89.552205193065], [-115.6129111451, -101.29190063632, 91.507649529002], [-115.68411008537, -99.902237893703, 93.463095772288], [-115.75530914486, -98.51257491267, 95.418542015574], [-115.82650808514, -97.12291211045, 97.373988258861], [-115.89770702541, -95.733249248626, 99.329432594798], [-115.9689060849, -94.343586207988, 101.28487693074], [-116.04010514439, -92.953923465373, 103.24032508137], [-116.11130408466, -91.56426048434, 105.19576941731], [-116.18250302494, -90.174597741725, 107.15121375325], [-116.25370196522, -88.784934522273, 109.10666190388], [-116.3249009055, -87.395271779659, 111.06210623982], [-116.39609984577, -86.005609037044, 113.01755439045], [-116.46729902447, -84.615946294429, 114.97299872639], [-116.53849796475, -83.226283551814, 116.92844306233], [-116.60969690502, -81.836619855525, 118.88389121296], [-116.6808958453, -80.446957112911, 120.8393355489], [-116.75209478558, -79.057294370296, 122.79477988484], [-116.82329396427, -77.667630674007, 124.75022803547], [-116.89449290455, -76.277968885066, 126.70567237141], [-116.96569184483, -74.888305188777, 128.66112052204], [-117.0368907851, -73.498643399837, 130.61656485798], [-117.10808972538, -72.108979703548, 132.57200919392], [-117.17928890408, -70.719317914607, 134.52745352986], [-117.25048784435, -69.329654218318, 136.48289786579], [-117.32168678463, -67.939990522029, 138.43834983113], [-117.39288572491, -66.550328733089, 140.39379416706], [-117.46408466518, -65.1606650368, 142.349238503], [-117.53528384388, -63.771001340511, 144.30468283894], [-117.60648278416, -62.381341458919, 146.26012717488], [-117.67768172443, -60.99167776263, 148.21557151081], [-117.74888066471, -59.602014066341, 150.17102347615], [-117.82007960499, -58.212350370052, 152.12646781208], [-117.89127878368, -56.822686673763, 154.08191214802], [-117.96247772396, -55.433026792171, 156.03735648396], [-118.03367666424, -54.043363095882, 157.9928008199], [-118.10487560452, -52.653699399593, 159.94824515583], [-118.17607454479, -51.264035703304, 161.90369712117], [-118.24727348507, -49.874372007015, 163.8591414571], [-118.31847242535, -48.484712125423, 165.81458579304], [-118.38967136562, -47.095048429134, 167.77003012898], [-118.46087078274, -45.705384732845, 169.72547446492], [-118.53206972302, -44.315721036556, 171.68091880085], [-118.60326866329, -42.926057340267, 173.63637076618], [-118.67446760357, -41.536397458675, 175.59181510212], [-118.74566654385, -40.146733762386, 177.54725943806], [-118.81686548412, -38.757070066097, 179.502703774], [-118.8880644244, -37.367406369808, 181.45814810993], [-118.95926336468, -35.977746488216, 183.41360007527], [-119.03046230496, -34.588082791927, 185.3690444112], [-119.10166124523, -33.198419095638, 187.32448874714], [-119.17286018551, -31.808755399349, 189.27993308308], [-119.24405960262, -30.41909170306, 191.23537741902]], "InstanceCreationTime": ["073601.734000", "073601.640000", "073601.734000", "073601.640000", "073601.734000", "073601.640000", "073601.734000", "073601.640000", "073601.734000", "073601.640000", "073601.734000", "073601.656000", "073601.750000", "073601.656000", "073601.750000", "073601.656000", "073601.750000", "073601.671000", "073601.750000", "073601.671000", "073601.750000", "073601.671000", "073601.750000", "073601.671000", "073601.765000", "073601.687000", "073601.765000", "073601.687000", "073601.765000", "073601.687000", "073601.765000", "073601.687000", "073601.781000", "073601.687000", "073601.781000", "073601.687000", "073601.781000", "073601.687000", "073601.781000", "073601.687000", "073601.781000", "073601.703000", "073601.796000", "073601.703000", "073601.796000", "073601.703000", "073601.796000", "073601.703000", "073601.796000", "073601.718000", "073601.796000", "073601.718000", "073601.796000", "073601.718000", "073601.796000", "073601.718000", "073601.796000", "073601.718000", "073601.796000", "073601.718000", "073601.812000", "073601.718000", "073601.812000", "073601.734000", "073601.828000", "073601.734000", "073601.828000", "073601.734000"], "InstanceNumber": [1, 2, 3, 4, 5, 6, 7, 8, 9, 10, 11, 12, 13, 14, 15, 16, 17, 18, 19, 20, 21, 22, 23, 24, 25, 26, 27, 28, 29, 30, 31, 32, 33, 34, 35, 36, 37, 38, 39, 40, 41, 42, 43, 44, 45, 46, 47, 48, 49, 50, 51, 52, 53, 54, 55, 56, 57, 58, 59, 60, 61, 62, 63, 64, 65, 66, 67, 68], "LargestImagePixelValue": [4094, 4094, 4094, 4092, 4093, 4094, 4094, 4094, 4092, 4093, 4094, 4094, 4094, 4094, 4094, 4094, 4094, 4093, 4093, 4093, 4093, 4093, 4080, 4094, 4087, 4094, 4094, 4092, 4091, 4091, 4090, 4094, 4094, 4090, 4093, 4092, 4094, 4091, 4093, 4090, 4091, 4088, 4091, 4091, 4086, 4094, 4094, 4093, 4094, 4091, 4092, 4094, 4094, 4094, 4094, 4094, 4094, 4092, 4093, 4094, 4094, 4092, 4094, 4094, 4093, 4094, 4094, 4094], "SliceLocation": [-19.063263528529, -16.663262981103, -14.263262602767, -11.863263280271, -9.4632628308566, -7.0632633869509, -4.6632628386404, -2.2632637832469, 0.13673715357577, 2.5367367594035, 4.9367363652312, 7.3367373038221, 9.7367376866741, 12.136736519014, 14.536736901866, 16.936737284718, 19.336736393159, 21.736736776011, 24.13673730045, 26.536737717815, 28.936736615644, 31.336735620547, 33.736737560984, 36.136736527838, 38.536735356641, 40.936737569643, 43.336736398446, 45.736738335347, 48.136737171223, 50.536736000027, 52.93673848913, 55.336737317933, 57.736736146737, 60.136738642913, 62.536736919514, 64.936739408617, 67.336737685218, 69.736737066224, 72.136735349898, 74.536734730903, 76.936740328104, 79.336738604705, 81.73673798571, 84.136737373789, 86.536734545985, 88.936733926991, 91.336739524191, 93.736738905197, 96.136738293276, 98.536735465472, 100.93673484648, 103.33673422748, 105.73673982468, 108.13673920569, 110.53673637789, 112.93673575889, 115.33673515404, 117.73673453505, 120.13674013225, 122.53673730445, 124.93673668545, 127.33673606646, 129.73673544746, 132.13673883585, 134.53673821686, 136.93673759787, 139.33673697887, 141.73673637402], "SmallestImagePixelValue": [0, 0, 0, 0, 0, 0, 0, 0, 0, 1, 0, 2, 0, 1, 2, 0, 1, 1, 0, 1, 2, 1, 2, 0, 3, 2, 1, 0, 0, 4, 1, 0, 11, 2, 5, 0, 2, 13, 10, 0, 0, 2, 3, 6, 0, 0, 0, 1, 1, 1, 3, 3, 3, 2, 0, 0, 0, 1, 0, 1, 0, 0, 0, 1, 0, 1, 0, 0], "WindowCenter": [-202.0, -204.0, -206.0, -284.0, -250.0, -372.0, -486.0, -346.0, -270.0, -358.0, -544.0, -592.0, -580.0, -556.0, -550.0, -574.0, -546.0, -498.0, -474.0, -484.0, -436.0, -386.0, -368.0, -336.0, -358.0, -292.0, -292.0, -322.0, -318.0, -302.0, -290.0, -298.0, -300.0, -314.0, -260.0, -284.0, -276.0, -244.0, -242.0, -214.0, -210.0, -208.0, -204.0, -244.0, -246.0, -284.0, -284.0, -292.0, -302.0, -286.0, -256.0, -262.0, -260.0, -270.0, -290.0, -272.0, -320.0, -374.0, -392.0, -462.0, -498.0, -544.0, -532.0, -544.0, -538.0, -524.0, -568.0, -474.0], "WindowWidth": [6304.0, 6382.0, 6538.0, 6424.0, 6410.0, 6118.0, 5796.0, 5894.0, 6124.0, 5786.0, 5002.0, 4920.0, 4890.0, 4824.0, 4758.0, 4766.0, 4780.0, 4698.0, 4622.0, 4580.0, 4494.0, 4392.0, 4316.0, 4292.0, 4226.0, 4274.0, 4242.0, 4174.0, 4094.0, 4072.0, 4066.0, 4088.0, 4064.0, 4050.0, 4076.0, 4124.0, 4140.0, 4172.0, 4240.0, 4270.0, 4270.0, 4302.0, 4298.0, 4362.0, 4366.0, 4386.0, 4378.0, 4426.0, 4414.0, 4422.0, 4438.0, 4462.0, 4456.0, 4480.0, 4466.0, 4448.0, 4490.0, 4538.0, 4566.0, 4660.0, 4706.0, 4738.0, 4840.0, 4838.0, 4908.0, 4986.0, 5012.0, 4994.0]}}}