{"AcquisitionMatrixPE": 96, "AcquisitionNumber": 1, "AcquisitionTime": "07:51:52.780000", "BandwidthPerPixelPhaseEncode": 33.602, "BaseResolution": 96, "BodyPartExamined": "BRAIN", "ConsistencyInfo": "N4_VD11D_LATEST_20110129", "ConversionSoftware": "dcm2niix", "ConversionSoftwareVersion": "v1.0.20210317", "DerivedVendorReportedEchoSpacing": 0.000620003, "DeviceSerialNumber": "45239", "DwellTime": 2.6e-06, "EchoTime": 0.03, "EchoTrainLength": 48, "EffectiveEchoSpacing": 0.000310001, "FlipAngle": 63, "ImageComments": "Unaliased MB4/PE3", "ImageOrientationPatientDICOM": [0.999999, 0.00107924, -0.000552259, -0.00121233, 0.890212, -0.455545], "ImageType": ["ORIGINAL", "PRIMARY", "M", "ND", "NORM", "MOSAIC"], "ImagingFrequency": 123.193, "InPlanePhaseEncodingDirectionDICOM": "COL", "InstitutionAddress": "E 24th St. 100,Austin,Southmiddle,US,78712", "InstitutionName": "Univ of Texas at Austin", "InstitutionalDepartmentName": "IRC", "MRAcquisitionType": "2D", "MagneticFieldStrength": 3, "Manufacturer": "Siemens", "ManufacturersModelName": "Skyra", "Modality": "MR", "MultibandAccelerationFactor": 4, "ParallelReductionFactorInPlane": 2, "PartialFourier": 1, "PatientPosition": "HFS", "PercentPhaseFOV": 100, "PercentSampling": 100, "PhaseEncodingDirection": "j-", "PhaseEncodingSteps": 96, "PhaseResolution": 1, "PixelBandwidth": 2005, "ProcedureStepDescription": "Poldrack^BM", "ProtocolName": "Breath_Hold", "PulseSequenceDetails": "%CustomerSeq%\\cmrr_mbep2d_bold", "ReceiveCoilActiveElements": "HEA;HEP", "ReceiveCoilName": "Head_32", "ReconMatrixPE": 96, "RefLinesPE": 94, "RepetitionTime": 1.16, "SAR": 0.0930675, "ScanOptions": "FS", "ScanningSequence": "EP", "SequenceName": "epfid2d1_96", "SequenceVariant": "SK", "SeriesDescription": "Breath_Hold", "SeriesNumber": 8, "ShimSetting": [-2782, 8056, -15449, 151, -221, 118, 193, -86], "SliceThickness": 2, "SliceTiming": [0, 0.4975, 0.9975, 0.355, 0.855, 0.2125, 0.7125, 0.0725, 0.57, 1.0675, 0.4275, 0.925, 0.285, 0.7825, 0.1425, 0.64, 0, 0.4975, 0.9975, 0.355, 0.855, 0.2125, 0.7125, 0.0725, 0.57, 1.0675, 0.4275, 0.925, 0.285, 0.7825, 0.1425, 0.64, 0, 0.4975, 0.9975, 0.355, 0.855, 0.2125, 0.7125, 0.0725, 0.57, 1.0675, 0.4275, 0.925, 0.285, 0.7825, 0.1425, 0.64, 0, 0.4975, 0.9975, 0.355, 0.855, 0.2125, 0.7125, 0.0725, 0.57, 1.0675, 0.4275, 0.925, 0.285, 0.7825, 0.1425, 0.64], "SoftwareVersions": "syngo MR D11", "SpacingBetweenSlices": 2.4, "StationName": "AWP45239", "TaskName": "Breath holding task", "TotalReadoutTime": 0.0294501, "TxRefAmp": 333.309, "WipMemBlock": "570ee4e2-7e7f-4c9e-99ba-8faa3a26f791||Sequence: VD11D r206; Feb 13 2013 18:52:04 by eja", "dcmmeta_affine": [[-2.39583158493042, -0.00290455250069499, 3.715069141208005e-08, 120.5265884399414], [-0.00258568674325943, 2.1327998638153076, -1.0933077335357666, -81.58604431152344], [-0.0013231211341917515, 1.0914088487625122, 2.1365106105804443, -86.00537872314453], [0.0, 0.0, 0.0, 1.0]], "dcmmeta_reorient_transform": [[0.0, -1.0, 0.0, 95.0], [1.0, 0.0, 0.0, 0.0], [0.0, 0.0, 1.0, 0.0], [0.0, 0.0, 0.0, 1.0]], "dcmmeta_shape": [96, 96, 64, 318], "dcmmeta_slice_dim": 2, "dcmmeta_version": 0.6, "global": {"const": {"AcquisitionMatrix": [96, 0, 0, 96], "AngioFlag": "N", "BitsAllocated": 16, "BitsStored": 16, "BodyPartExamined": "BRAIN", "Columns": 768, "EchoNumbers": 1, "EchoTime": 30.0, "EchoTrainLength": 48, "FlipAngle": 63.0, "HighBit": 15, "ImageOrientationPatient": [0.99999926512164, 0.00107924319523, -0.0005522592765, -0.0012123350126, 0.89021214379279, -0.4555445854004], "ImagePositionPatient": [-924.2741072109, -838.51948765643, 384.8364086233], "ImageType": ["ORIGINAL", "PRIMARY", "M", "ND", "NORM", "MOSAIC"], "ImagedNucleus": "1H", "ImagingFrequency": 123.193381, "InPlanePhaseEncodingDirection": "COL", "MRAcquisitionType": "2D", "MagneticFieldStrength": 3.0, "Manufacturer": "SIEMENS", "ManufacturerModelName": "Skyra", "Modality": "MR", "NumberOfAverages": 1.0, "NumberOfPhaseEncodingSteps": 96, "PercentPhaseFieldOfView": 100.0, "PercentSampling": 100.0, "PerformedProcedureStepStartTime": "072825.187000", "PhotometricInterpretation": "MONOCHROME2", "PixelBandwidth": 2005.0, "PixelRepresentation": 0, "PixelSpacing": [2.3958332538605, 2.3958332538605], "ProtocolName": "Breath_Hold", "RepetitionTime": 1160.0, "Rows": 768, "SAR": 0.09306750742998, "SamplesPerPixel": 1, "ScanOptions": "FS", "ScanningSequence": "EP", "SequenceName": "epfid2d1_96", "SequenceVariant": "SK", "SeriesDescription": "Breath_Hold", "SeriesNumber": 8, "SeriesTime": "075234.781000", "SliceLocation": -39.396982652048, "SliceThickness": 2.0, "SmallestImagePixelValue": 0, "SoftwareVersions": "syngo MR D11", "SpacingBetweenSlices": 2.3999999657789, "SpecificCharacterSet": "ISO_IR 100", "StudyID": "1", "StudyTime": "072825.140000", "TransmitCoilName": "Body", "VariableFlipAngleFlag": "N", "WindowCenterWidthExplanation": "Algo1", "dBdt": 0.0}, "slices": {}}, "time": {"samples": {"AcquisitionNumber": [1, 2, 3, 4, 5, 6, 7, 8, 9, 10, 11, 12, 13, 14, 15, 16, 17, 18, 19, 20, 21, 22, 23, 24, 25, 26, 27, 28, 29, 30, 31, 32, 33, 34, 35, 36, 37, 38, 39, 40, 41, 42, 43, 44, 45, 46, 47, 48, 49, 50, 51, 52, 53, 54, 55, 56, 57, 58, 59, 60, 61, 62, 63, 64, 65, 66, 67, 68, 69, 70, 71, 72, 73, 74, 75, 76, 77, 78, 79, 80, 81, 82, 83, 84, 85, 86, 87, 88, 89, 90, 91, 92, 93, 94, 95, 96, 97, 98, 99, 100, 101, 102, 103, 104, 105, 106, 107, 108, 109, 110, 111, 112, 113, 114, 115, 116, 117, 118, 119, 120, 121, 122, 123, 124, 125, 126, 127, 128, 129, 130, 131, 132, 133, 134, 135, 136, 137, 138, 139, 140, 141, 142, 143, 144, 145, 146, 147, 148, 149, 150, 151, 152, 153, 154, 155, 156, 157, 158, 159, 160, 161, 162, 163, 164, 165, 166, 167, 168, 169, 170, 171, 172, 173, 174, 175, 176, 177, 178, 179, 180, 181, 182, 183, 184, 185, 186, 187, 188, 189, 190, 191, 192, 193, 194, 195, 196, 197, 198, 199, 200, 201, 202, 203, 204, 205, 206, 207, 208, 209, 210, 211, 212, 213, 214, 215, 216, 217, 218, 219, 220, 221, 222, 223, 224, 225, 226, 227, 228, 229, 230, 231, 232, 233, 234, 235, 236, 237, 238, 239, 240, 241, 242, 243, 244, 245, 246, 247, 248, 249, 250, 251, 252, 253, 254, 255, 256, 257, 258, 259, 260, 261, 262, 263, 264, 265, 266, 267, 268, 269, 270, 271, 272, 273, 274, 275, 276, 277, 278, 279, 280, 281, 282, 283, 284, 285, 286, 287, 288, 289, 290, 291, 292, 293, 294, 295, 296, 297, 298, 299, 300, 301, 302, 303, 304, 305, 306, 307, 308, 309, 310, 311, 312, 313, 314, 315, 316, 317, 318], "AcquisitionTime": ["075152.780000", "075221.780000", "075222.940000", "075224.100000", "075225.260000", "075226.420000", "075227.580000", "075228.740000", "075229.900000", "075231.060000", "075232.220000", "075233.380000", "075234.540000", "075235.700000", "075236.860000", "075238.020000", "075239.180000", "075240.340000", "075241.500000", "075242.660000", "075243.820000", "075244.980000", "075246.140000", "075247.300000", "075248.460000", "075249.620000", "075250.780000", "075251.940000", "075253.100000", "075254.260000", "075255.420000", "075256.580000", "075257.740000", "075258.900000", "075300.060000", "075301.220000", "075302.380000", "075303.540000", "075304.700000", "075305.860000", "075307.020000", "075308.180000", "075309.340000", "075310.500000", "075311.660000", "075312.820000", "075313.980000", "075315.140000", "075316.300000", "075317.460000", "075318.620000", "075319.780000", "075320.940000", "075322.100000", "075323.260000", "075324.420000", "075325.580000", "075326.740000", "075327.900000", "075329.060000", "075330.220000", "075331.380000", "075332.540000", "075333.700000", "075334.860000", "075336.020000", "075337.180000", "075338.340000", "075339.500000", "075340.660000", "075341.820000", "075342.980000", "075344.140000", "075345.300000", "075346.460000", "075347.620000", "075348.780000", "075349.940000", "075351.100000", "075352.260000", "075353.420000", "075354.580000", "075355.740000", "075356.900000", "075358.060000", "075359.220000", "075400.380000", "075401.540000", "075402.700000", "075403.860000", "075405.020000", "075406.180000", "075407.340000", "075408.500000", "075409.660000", "075410.820000", "075411.980000", "075413.140000", "075414.300000", "075415.460000", "075416.620000", "075417.780000", "075418.940000", "075420.100000", "075421.260000", "075422.420000", "075423.580000", "075424.740000", "075425.900000", "075427.060000", "075428.220000", "075429.380000", "075430.540000", "075431.700000", "075432.860000", "075434.020000", "075435.180000", "075436.340000", "075437.500000", "075438.660000", "075439.820000", "075440.982500", "075442.142500", "075443.302500", "075444.462500", "075445.622500", "075446.782500", "075447.942500", "075449.102500", "075450.262500", "075451.422500", "075452.582500", "075453.742500", "075454.902500", "075456.062500", "075457.222500", "075458.382500", "075459.542500", "075500.702500", "075501.862500", "075503.022500", "075504.182500", "075505.342500", "075506.502500", "075507.662500", "075508.822500", "075509.982500", "075511.142500", "075512.302500", "075513.462500", "075514.622500", "075515.782500", "075516.942500", "075518.102500", "075519.262500", "075520.422500", "075521.582500", "075522.742500", "075523.902500", "075525.062500", "075526.222500", "075527.382500", "075528.542500", "075529.702500", "075530.862500", "075532.022500", "075533.182500", "075534.342500", "075535.502500", "075536.662500", "075537.822500", "075538.982500", "075540.142500", "075541.302500", "075542.462500", "075543.622500", "075544.782500", "075545.942500", "075547.102500", "075548.262500", "075549.422500", "075550.582500", "075551.742500", "075552.902500", "075554.062500", "075555.222500", "075556.382500", "075557.542500", "075558.702500", "075559.862500", "075601.022500", "075602.182500", "075603.342500", "075604.502500", "075605.662500", "075606.822500", "075607.982500", "075609.142500", "075610.302500", "075611.462500", "075612.622500", "075613.782500", "075614.942500", "075616.102500", "075617.262500", "075618.422500", "075619.582500", "075620.742500", "075621.902500", "075623.062500", "075624.222500", "075625.382500", "075626.542500", "075627.702500", "075628.862500", "075630.022500", "075631.182500", "075632.342500", "075633.502500", "075634.662500", "075635.822500", "075636.982500", "075638.142500", "075639.302500", "075640.462500", "075641.622500", "075642.782500", "075643.942500", "075645.102500", "075646.262500", "075647.422500", "075648.582500", "075649.742500", "075650.902500", "075652.062500", "075653.222500", "075654.382500", "075655.542500", "075656.702500", "075657.862500", "075659.022500", "075700.182500", "075701.342500", "075702.502500", "075703.662500", "075704.822500", "075705.982500", "075707.142500", "075708.302500", "075709.462500", "075710.622500", "075711.782500", "075712.942500", "075714.102500", "075715.262500", "075716.422500", "075717.582500", "075718.742500", "075719.902500", "075721.062500", "075722.222500", "075723.382500", "075724.542500", "075725.702500", "075726.862500", "075728.022500", "075729.182500", "075730.342500", "075731.502500", "075732.662500", "075733.822500", "075734.982500", "075736.142500", "075737.302500", "075738.462500", "075739.622500", "075740.782500", "075741.942500", "075743.102500", "075744.262500", "075745.422500", "075746.582500", "075747.742500", "075748.902500", "075750.062500", "075751.222500", "075752.382500", "075753.542500", "075754.702500", "075755.862500", "075757.022500", "075758.182500", "075759.342500", "075800.502500", "075801.662500", "075802.822500", "075803.982500", "075805.142500", "075806.302500", "075807.462500", "075808.622500", "075809.782500", "075810.942500", "075812.102500", "075813.262500", "075814.422500", "075815.582500", "075816.742500", "075817.902500", "075819.062500", "075820.222500", "075821.382500", "075822.542500", "075823.702500", "075824.862500", "075826.022500", "075827.182500", "075828.342500"], "ContentTime": ["075234.781000", "075239.359000", "075239.359000", "075239.359000", "075239.375000", "075244.359000", "075244.359000", "075244.359000", "075249.359000", "075249.359000", "075249.375000", "075249.375000", "075254.359000", "075254.359000", "075254.359000", "075254.375000", "075259.359000", "075259.359000", "075259.359000", "075259.375000", "075304.359000", "075304.359000", "075304.359000", "075309.359000", "075309.390000", "075309.406000", "075309.406000", "075314.359000", "075314.359000", "075314.375000", "075314.375000", "075319.359000", "075319.359000", "075319.359000", "075324.359000", "075324.359000", "075324.359000", "075324.359000", "075329.359000", "075329.359000", "075329.359000", "075329.359000", "075334.359000", "075334.359000", "075334.359000", "075334.359000", "075339.359000", "075339.359000", "075339.359000", "075339.359000", "075344.359000", "075344.359000", "075344.359000", "075349.359000", "075349.359000", "075349.359000", "075349.375000", "075354.359000", "075354.359000", "075354.359000", "075354.359000", "075359.359000", "075359.359000", "075359.359000", "075404.359000", "075404.359000", "075404.359000", "075404.359000", "075409.359000", "075409.359000", "075409.359000", "075409.359000", "075414.359000", "075414.359000", "075414.375000", "075419.359000", "075419.359000", "075419.359000", "075419.359000", "075424.359000", "075424.359000", "075424.359000", "075424.359000", "075429.359000", "075429.359000", "075429.359000", "075434.359000", "075434.359000", "075434.359000", "075434.359000", "075434.390000", "075439.359000", "075439.359000", "075439.359000", "075449.359000", "075449.359000", "075449.359000", "075449.375000", "075449.375000", "075449.375000", "075449.375000", "075449.375000", "075454.359000", "075454.359000", "075454.359000", "075454.359000", "075459.359000", "075459.359000", "075459.359000", "075504.359000", "075504.359000", "075504.359000", "075504.359000", "075509.359000", "075509.359000", "075509.359000", "075509.359000", "075514.359000", "075514.359000", "075514.359000", "075519.359000", "075519.359000", "075519.359000", "075519.359000", "075524.359000", "075524.359000", "075524.359000", "075524.375000", "075529.359000", "075529.359000", "075529.359000", "075534.359000", "075534.359000", "075534.359000", "075534.359000", "075534.359000", "075539.359000", "075539.359000", "075539.359000", "075539.359000", "075544.359000", "075544.359000", "075544.359000", "075549.359000", "075549.359000", "075549.375000", "075549.375000", "075554.359000", "075554.359000", "075554.359000", "075554.359000", "075559.359000", "075559.359000", "075559.359000", "075604.359000", "075604.359000", "075604.359000", "075604.359000", "075609.359000", "075609.359000", "075609.359000", "075609.359000", "075614.359000", "075614.359000", "075614.359000", "075614.359000", "075619.359000", "075619.359000", "075619.359000", "075624.359000", "075624.359000", "075624.359000", "075624.375000", "075629.359000", "075629.359000", "075629.359000", "075634.359000", "075634.359000", "075634.359000", "075634.359000", "075639.359000", "075639.359000", "075639.359000", "075639.359000", "075644.359000", "075644.359000", "075644.359000", "075644.359000", "075649.359000", "075649.359000", "075649.359000", "075654.359000", "075654.359000", "075654.359000", "075654.359000", "075659.359000", "075659.359000", "075659.359000", "075704.359000", "075704.359000", "075704.359000", "075704.359000", "075709.359000", "075709.359000", "075709.359000", "075709.359000", "075714.359000", "075714.359000", "075714.375000", "075714.375000", "075719.359000", "075719.359000", "075719.359000", "075724.359000", "075724.359000", "075724.359000", "075724.359000", "075729.359000", "075729.359000", "075729.359000", "075729.359000", "075734.359000", "075734.359000", "075734.359000", "075739.359000", "075739.359000", "075739.359000", "075739.359000", "075744.359000", "075744.359000", "075744.359000", "075749.359000", "075749.359000", "075749.359000", "075749.359000", "075754.359000", "075754.359000", "075754.359000", "075754.375000", "075759.359000", "075759.359000", "075759.359000", "075759.359000", "075804.359000", "075804.359000", "075804.359000", "075804.359000", "075809.359000", "075809.359000", "075809.359000", "075809.359000", "075814.359000", "075814.359000", "075814.359000", "075819.359000", "075819.359000", "075819.359000", "075819.359000", "075824.359000", "075824.359000", "075824.359000", "075824.359000", "075829.359000", "075829.359000", "075829.359000", "075829.359000", "075834.359000", "075834.359000", "075834.359000", "075834.359000", "075839.359000", "075839.359000", "075839.359000", "075839.375000", "075844.359000", "075844.359000", "075844.359000", "075844.375000", "075849.359000", "075849.359000", "075849.359000", "075849.359000", "075854.359000", "075854.359000", "075854.359000", "075854.359000", "075859.359000", "075859.359000", "075859.359000", "075859.359000", "075904.359000", "075904.359000", "075904.359000", "075904.359000", "075909.359000", "075909.359000", "075909.359000", "075909.359000", "075914.359000", "075914.359000", "075914.359000", "075914.359000", "075919.359000", "075919.359000", "075919.359000", "075919.375000", "075924.359000", "075924.359000", "075924.359000", "075924.359000", "075929.359000", "075929.359000", "075929.359000", "075929.359000", "075933.687000", "075933.687000", "075933.703000", "075933.703000"], "InstanceCreationTime": ["075234.781000", "075239.359000", "075239.359000", "075239.359000", "075239.375000", "075244.359000", "075244.359000", "075244.359000", "075249.359000", "075249.359000", "075249.375000", "075249.375000", "075254.359000", "075254.359000", "075254.359000", "075254.375000", "075259.359000", "075259.359000", "075259.359000", "075259.375000", "075304.359000", "075304.359000", "075304.359000", "075309.359000", "075309.390000", "075309.406000", "075309.406000", "075314.359000", "075314.359000", "075314.375000", "075314.375000", "075319.359000", "075319.359000", "075319.359000", "075324.359000", "075324.359000", "075324.359000", "075324.359000", "075329.359000", "075329.359000", "075329.359000", "075329.359000", "075334.359000", "075334.359000", "075334.359000", "075334.359000", "075339.359000", "075339.359000", "075339.359000", "075339.359000", "075344.359000", "075344.359000", "075344.359000", "075349.359000", "075349.359000", "075349.359000", "075349.375000", "075354.359000", "075354.359000", "075354.359000", "075354.359000", "075359.359000", "075359.359000", "075359.359000", "075404.359000", "075404.359000", "075404.359000", "075404.359000", "075409.359000", "075409.359000", "075409.359000", "075409.359000", "075414.359000", "075414.359000", "075414.375000", "075419.359000", "075419.359000", "075419.359000", "075419.359000", "075424.359000", "075424.359000", "075424.359000", "075424.359000", "075429.359000", "075429.359000", "075429.359000", "075434.359000", "075434.359000", "075434.359000", "075434.359000", "075434.390000", "075439.359000", "075439.359000", "075439.359000", "075449.359000", "075449.359000", "075449.359000", "075449.375000", "075449.375000", "075449.375000", "075449.375000", "075449.375000", "075454.359000", "075454.359000", "075454.359000", "075454.359000", "075459.359000", "075459.359000", "075459.359000", "075504.359000", "075504.359000", "075504.359000", "075504.359000", "075509.359000", "075509.359000", "075509.359000", "075509.359000", "075514.359000", "075514.359000", "075514.359000", "075519.359000", "075519.359000", "075519.359000", "075519.359000", "075524.359000", "075524.359000", "075524.359000", "075524.375000", "075529.359000", "075529.359000", "075529.359000", "075534.359000", "075534.359000", "075534.359000", "075534.359000", "075534.359000", "075539.359000", "075539.359000", "075539.359000", "075539.359000", "075544.359000", "075544.359000", "075544.359000", "075549.359000", "075549.359000", "075549.375000", "075549.375000", "075554.359000", "075554.359000", "075554.359000", "075554.359000", "075559.359000", "075559.359000", "075559.359000", "075604.359000", "075604.359000", "075604.359000", "075604.359000", "075609.359000", "075609.359000", "075609.359000", "075609.359000", "075614.359000", "075614.359000", "075614.359000", "075614.359000", "075619.359000", "075619.359000", "075619.359000", "075624.359000", "075624.359000", "075624.359000", "075624.375000", "075629.359000", "075629.359000", "075629.359000", "075634.359000", "075634.359000", "075634.359000", "075634.359000", "075639.359000", "075639.359000", "075639.359000", "075639.359000", "075644.359000", "075644.359000", "075644.359000", "075644.359000", "075649.359000", "075649.359000", "075649.359000", "075654.359000", "075654.359000", "075654.359000", "075654.359000", "075659.359000", "075659.359000", "075659.359000", "075704.359000", "075704.359000", "075704.359000", "075704.359000", "075709.359000", "075709.359000", "075709.359000", "075709.359000", "075714.359000", "075714.359000", "075714.375000", "075714.375000", "075719.359000", "075719.359000", "075719.359000", "075724.359000", "075724.359000", "075724.359000", "075724.359000", "075729.359000", "075729.359000", "075729.359000", "075729.359000", "075734.359000", "075734.359000", "075734.359000", "075739.359000", "075739.359000", "075739.359000", "075739.359000", "075744.359000", "075744.359000", "075744.359000", "075749.359000", "075749.359000", "075749.359000", "075749.359000", "075754.359000", "075754.359000", "075754.359000", "075754.375000", "075759.359000", "075759.359000", "075759.359000", "075759.359000", "075804.359000", "075804.359000", "075804.359000", "075804.359000", "075809.359000", "075809.359000", "075809.359000", "075809.359000", "075814.359000", "075814.359000", "075814.359000", "075819.359000", "075819.359000", "075819.359000", "075819.359000", "075824.359000", "075824.359000", "075824.359000", "075824.359000", "075829.359000", "075829.359000", "075829.359000", "075829.359000", "075834.359000", "075834.359000", "075834.359000", "075834.359000", "075839.359000", "075839.359000", "075839.359000", "075839.375000", "075844.359000", "075844.359000", "075844.359000", "075844.375000", "075849.359000", "075849.359000", "075849.359000", "075849.359000", "075854.359000", "075854.359000", "075854.359000", "075854.359000", "075859.359000", "075859.359000", "075859.359000", "075859.359000", "075904.359000", "075904.359000", "075904.359000", "075904.359000", "075909.359000", "075909.359000", "075909.359000", "075909.359000", "075914.359000", "075914.359000", "075914.359000", "075914.359000", "075919.359000", "075919.359000", "075919.359000", "075919.375000", "075924.359000", "075924.359000", "075924.359000", "075924.359000", "075929.359000", "075929.359000", "075929.359000", "075929.359000", "075933.687000", "075933.687000", "075933.703000", "075933.703000"], "InstanceNumber": [1, 2, 3, 4, 5, 6, 7, 8, 9, 10, 11, 12, 13, 14, 15, 16, 17, 18, 19, 20, 21, 22, 23, 24, 25, 26, 27, 28, 29, 30, 31, 32, 33, 34, 35, 36, 37, 38, 39, 40, 41, 42, 43, 44, 45, 46, 47, 48, 49, 50, 51, 52, 53, 54, 55, 56, 57, 58, 59, 60, 61, 62, 63, 64, 65, 66, 67, 68, 69, 70, 71, 72, 73, 74, 75, 76, 77, 78, 79, 80, 81, 82, 83, 84, 85, 86, 87, 88, 89, 90, 91, 92, 93, 94, 95, 96, 97, 98, 99, 100, 101, 102, 103, 104, 105, 106, 107, 108, 109, 110, 111, 112, 113, 114, 115, 116, 117, 118, 119, 120, 121, 122, 123, 124, 125, 126, 127, 128, 129, 130, 131, 132, 133, 134, 135, 136, 137, 138, 139, 140, 141, 142, 143, 144, 145, 146, 147, 148, 149, 150, 151, 152, 153, 154, 155, 156, 157, 158, 159, 160, 161, 162, 163, 164, 165, 166, 167, 168, 169, 170, 171, 172, 173, 174, 175, 176, 177, 178, 179, 180, 181, 182, 183, 184, 185, 186, 187, 188, 189, 190, 191, 192, 193, 194, 195, 196, 197, 198, 199, 200, 201, 202, 203, 204, 205, 206, 207, 208, 209, 210, 211, 212, 213, 214, 215, 216, 217, 218, 219, 220, 221, 222, 223, 224, 225, 226, 227, 228, 229, 230, 231, 232, 233, 234, 235, 236, 237, 238, 239, 240, 241, 242, 243, 244, 245, 246, 247, 248, 249, 250, 251, 252, 253, 254, 255, 256, 257, 258, 259, 260, 261, 262, 263, 264, 265, 266, 267, 268, 269, 270, 271, 272, 273, 274, 275, 276, 277, 278, 279, 280, 281, 282, 283, 284, 285, 286, 287, 288, 289, 290, 291, 292, 293, 294, 295, 296, 297, 298, 299, 300, 301, 302, 303, 304, 305, 306, 307, 308, 309, 310, 311, 312, 313, 314, 315, 316, 317, 318], "LargestImagePixelValue": [22408, 22886, 22221, 21897, 24229, 22755, 22079, 22136, 22108, 21842, 22517, 22375, 22065, 22746, 22106, 21895, 21876, 21995, 23654, 22220, 22242, 21759, 22242, 21634, 23301, 22228, 22046, 21935, 21973, 21988, 22215, 22551, 21995, 22525, 22106, 21953, 21783, 22358, 24424, 22027, 22304, 22656, 21860, 21771, 22327, 22063, 22071, 21974, 21933, 21952, 22007, 21879, 21791, 21788, 22147, 22125, 22161, 22107, 22039, 22500, 22246, 22193, 22635, 22830, 22586, 22152, 22088, 22625, 21718, 21769, 21962, 21967, 22107, 22180, 21744, 21797, 21810, 22814, 22009, 22193, 21833, 22337, 21788, 22099, 22090, 21836, 21976, 23144, 21688, 21835, 22151, 21806, 22015, 22416, 22013, 22055, 22679, 21871, 21801, 21662, 21642, 21933, 21694, 22240, 21875, 21874, 21841, 21786, 21757, 21604, 21965, 22114, 21693, 21813, 21768, 21638, 21952, 24676, 22722, 21921, 21722, 22071, 21470, 24678, 22871, 21615, 21767, 21619, 21629, 22243, 23068, 21818, 22077, 22371, 21682, 21498, 22117, 21733, 21910, 21678, 21541, 21525, 21971, 21498, 21597, 21930, 21487, 21606, 22427, 21532, 21825, 21519, 21510, 21496, 21618, 21563, 21541, 21543, 21511, 21555, 21718, 21489, 21600, 21491, 21603, 21461, 21611, 21844, 21806, 21921, 22449, 21654, 21954, 21557, 21540, 23190, 23171, 21436, 21725, 21924, 21412, 22581, 22023, 21440, 21750, 21633, 21521, 21578, 21658, 21468, 22446, 21708, 22240, 21422, 23066, 21541, 21519, 21545, 23134, 21419, 21886, 21454, 21553, 21501, 21563, 21442, 21415, 21664, 21379, 21368, 21508, 21580, 21585, 21815, 21912, 21685, 21674, 21714, 21543, 21695, 21887, 21711, 21725, 21602, 21517, 21725, 23051, 21605, 21358, 24058, 21497, 22852, 21584, 21335, 21338, 21377, 22109, 21634, 21873, 21356, 21483, 21684, 21378, 21615, 21553, 21471, 21481, 22213, 21680, 21377, 22074, 21449, 21406, 22922, 21636, 21431, 21442, 21319, 21291, 21373, 21330, 21393, 22106, 21342, 21657, 21447, 21555, 21502, 21518, 21832, 22198, 21583, 21694, 21541, 21589, 21504, 22666, 21460, 21291, 22467, 21252, 21239, 23016, 21261, 21540, 21429, 21354, 21255, 22116, 21360, 21394, 22374, 21268, 21330, 21106, 21452, 21830, 21475, 21314, 22738, 21954, 21203, 21404, 22609, 21257, 21559, 21333, 21346, 21474, 21335, 21486, 21307, 21285, 21302, 21278, 21494, 21495, 21466], "WindowCenter": [9604.0, 9598.0, 9579.0, 9572.0, 9578.0, 9577.0, 9565.0, 9582.0, 9560.0, 9537.0, 9570.0, 9554.0, 9526.0, 9536.0, 9531.0, 9531.0, 9539.0, 9542.0, 9553.0, 9523.0, 9519.0, 9526.0, 9527.0, 9524.0, 9520.0, 9532.0, 9523.0, 9536.0, 9522.0, 9521.0, 9515.0, 9530.0, 9518.0, 9526.0, 9545.0, 9528.0, 9534.0, 9549.0, 9557.0, 9550.0, 9527.0, 9524.0, 9524.0, 9525.0, 9532.0, 9521.0, 9534.0, 9546.0, 9528.0, 9528.0, 9554.0, 9568.0, 9579.0, 9580.0, 9588.0, 9570.0, 9588.0, 9589.0, 9604.0, 9611.0, 9612.0, 9614.0, 9601.0, 9572.0, 9588.0, 9574.0, 9566.0, 9544.0, 9559.0, 9551.0, 9559.0, 9550.0, 9539.0, 9538.0, 9541.0, 9518.0, 9523.0, 9519.0, 9514.0, 9526.0, 9532.0, 9533.0, 9541.0, 9524.0, 9524.0, 9516.0, 9521.0, 9514.0, 9506.0, 9505.0, 9518.0, 9503.0, 9511.0, 9531.0, 9524.0, 9523.0, 9525.0, 9536.0, 9522.0, 9521.0, 9540.0, 9546.0, 9555.0, 9546.0, 9556.0, 9555.0, 9557.0, 9578.0, 9578.0, 9584.0, 9574.0, 9573.0, 9577.0, 9593.0, 9583.0, 9584.0, 9589.0, 9661.0, 9594.0, 9595.0, 9584.0, 9568.0, 9549.0, 9538.0, 9531.0, 9524.0, 9532.0, 9535.0, 9547.0, 9545.0, 9525.0, 9527.0, 9514.0, 9530.0, 9515.0, 9502.0, 9514.0, 9496.0, 9498.0, 9501.0, 9495.0, 9495.0, 9529.0, 9516.0, 9491.0, 9523.0, 9515.0, 9505.0, 9501.0, 9501.0, 9505.0, 9523.0, 9536.0, 9521.0, 9529.0, 9553.0, 9550.0, 9550.0, 9529.0, 9549.0, 9551.0, 9560.0, 9558.0, 9565.0, 9570.0, 9575.0, 9558.0, 9557.0, 9587.0, 9594.0, 9586.0, 9573.0, 9574.0, 9551.0, 9552.0, 9562.0, 9546.0, 9536.0, 9541.0, 9524.0, 9517.0, 9517.0, 9515.0, 9503.0, 9509.0, 9510.0, 9524.0, 9514.0, 9526.0, 9501.0, 9522.0, 9496.0, 9517.0, 9515.0, 9534.0, 9507.0, 9508.0, 9492.0, 9517.0, 9496.0, 9493.0, 9487.0, 9504.0, 9512.0, 9505.0, 9524.0, 9526.0, 9545.0, 9552.0, 9553.0, 9552.0, 9567.0, 9573.0, 9561.0, 9570.0, 9564.0, 9573.0, 9592.0, 9586.0, 9587.0, 9580.0, 9582.0, 9592.0, 9568.0, 9579.0, 9555.0, 9553.0, 9549.0, 9539.0, 9555.0, 9516.0, 9527.0, 9515.0, 9530.0, 9525.0, 9515.0, 9536.0, 9516.0, 9529.0, 9528.0, 9526.0, 9506.0, 9513.0, 9498.0, 9484.0, 9493.0, 9515.0, 9529.0, 9527.0, 9524.0, 9513.0, 9500.0, 9514.0, 9519.0, 9498.0, 9496.0, 9508.0, 9517.0, 9529.0, 9546.0, 9542.0, 9550.0, 9559.0, 9553.0, 9573.0, 9589.0, 9570.0, 9568.0, 9564.0, 9583.0, 9569.0, 9570.0, 9587.0, 9580.0, 9580.0, 9580.0, 9576.0, 9551.0, 9557.0, 9559.0, 9537.0, 9538.0, 9553.0, 9522.0, 9528.0, 9522.0, 9519.0, 9503.0, 9515.0, 9501.0, 9492.0, 9505.0, 9506.0, 9516.0, 9508.0, 9514.0, 9516.0, 9503.0, 9513.0, 9535.0, 9515.0, 9492.0, 9506.0, 9520.0, 9512.0, 9511.0, 9501.0, 9512.0, 9495.0, 9513.0, 9514.0, 9521.0, 9529.0, 9532.0, 9548.0, 9561.0, 9557.0, 9574.0], "WindowWidth": [20270.0, 20250.0, 20212.0, 20194.0, 20201.0, 20196.0, 20175.0, 20204.0, 20162.0, 20120.0, 20177.0, 20141.0, 20088.0, 20107.0, 20095.0, 20094.0, 20110.0, 20116.0, 20137.0, 20082.0, 20073.0, 20085.0, 20087.0, 20081.0, 20076.0, 20095.0, 20079.0, 20105.0, 20081.0, 20077.0, 20062.0, 20091.0, 20069.0, 20082.0, 20119.0, 20093.0, 20107.0, 20134.0, 20147.0, 20135.0, 20092.0, 20084.0, 20080.0, 20083.0, 20096.0, 20079.0, 20103.0, 20124.0, 20094.0, 20096.0, 20145.0, 20175.0, 20201.0, 20208.0, 20224.0, 20192.0, 20225.0, 20226.0, 20257.0, 20271.0, 20276.0, 20278.0, 20252.0, 20197.0, 20220.0, 20190.0, 20176.0, 20134.0, 20160.0, 20144.0, 20156.0, 20137.0, 20118.0, 20112.0, 20117.0, 20070.0, 20077.0, 20073.0, 20065.0, 20084.0, 20097.0, 20098.0, 20113.0, 20082.0, 20082.0, 20065.0, 20071.0, 20056.0, 20040.0, 20040.0, 20063.0, 20042.0, 20059.0, 20095.0, 20081.0, 20077.0, 20078.0, 20101.0, 20078.0, 20078.0, 20115.0, 20128.0, 20146.0, 20134.0, 20153.0, 20154.0,