{
    "AcquisitionMatrixPE": 96,
    "AcquisitionNumber": 1,
    "AcquisitionTime": "07:40:15.877500",
    "BandwidthPerPixelPhaseEncode": 33.602,
    "BaseResolution": 96,
    "BodyPartExamined": "BRAIN",
    "ConsistencyInfo": "N4_VD11D_LATEST_20110129",
    "ConversionSoftware": "dcm2niix",
    "ConversionSoftwareVersion": "v1.0.20210317",
    "DerivedVendorReportedEchoSpacing": 0.000620003,
    "DeviceSerialNumber": "45239",
    "DwellTime": 2.6e-06,
    "EchoTime": 0.03,
    "EchoTrainLength": 48,
    "EffectiveEchoSpacing": 0.000310001,
    "FlipAngle": 63,
    "ImageComments": "Unaliased MB4/PE3",
    "ImageOrientationPatientDICOM": [
        0.999999,
        0.00107924,
        -0.000552259,
        -0.00121233,
        0.890212,
        -0.455545
    ],
    "ImageType": [
        "ORIGINAL",
        "PRIMARY",
        "M",
        "ND",
        "NORM",
        "MOSAIC"
    ],
    "ImagingFrequency": 123.193,
    "InPlanePhaseEncodingDirectionDICOM": "COL",
    "InstitutionAddress": "E 24th St. 100,Austin,Southmiddle,US,78712",
    "InstitutionName": "Univ of Texas at Austin",
    "InstitutionalDepartmentName": "IRC",
    "MRAcquisitionType": "2D",
    "MagneticFieldStrength": 3,
    "Manufacturer": "Siemens",
    "ManufacturersModelName": "Skyra",
    "Modality": "MR",
    "MultibandAccelerationFactor": 4,
    "ParallelReductionFactorInPlane": 2,
    "PartialFourier": 1,
    "PatientPosition": "HFS",
    "PercentPhaseFOV": 100,
    "PercentSampling": 100,
    "PhaseEncodingDirection": "j-",
    "PhaseEncodingSteps": 96,
    "PhaseResolution": 1,
    "PixelBandwidth": 2005,
    "ProcedureStepDescription": "Poldrack^BM",
    "ProtocolName": "Resting State fMRI MBEPI_matrix96_BW2004",
    "PulseSequenceDetails": "%CustomerSeq%\\cmrr_mbep2d_bold",
    "ReceiveCoilActiveElements": "HEA;HEP",
    "ReceiveCoilName": "Head_32",
    "ReconMatrixPE": 96,
    "RefLinesPE": 94,
    "RepetitionTime": 1.16,
    "SAR": 0.0944818,
    "ScanOptions": "FS",
    "ScanningSequence": "EP",
    "SequenceName": "epfid2d1_96",
    "SequenceVariant": "SK",
    "SeriesDescription": "Resting State fMRI MBEPI_matrix96_BW2004",
    "SeriesNumber": 6,
    "ShimSetting": [
        -2782,
        8056,
        -15449,
        151,
        -221,
        118,
        193,
        -86
    ],
    "SliceThickness": 2,
    "SliceTiming": [
        0,
        0.5,
        0.9975,
        0.3575,
        0.855,
        0.215,
        0.7125,
        0.0725,
        0.57,
        1.0675,
        0.4275,
        0.925,
        0.285,
        0.785,
        0.1425,
        0.6425,
        0,
        0.5,
        0.9975,
        0.3575,
        0.855,
        0.215,
        0.7125,
        0.0725,
        0.57,
        1.0675,
        0.4275,
        0.925,
        0.285,
        0.785,
        0.1425,
        0.6425,
        0,
        0.5,
        0.9975,
        0.3575,
        0.855,
        0.215,
        0.7125,
        0.0725,
        0.57,
        1.0675,
        0.4275,
        0.925,
        0.285,
        0.785,
        0.1425,
        0.6425,
        0,
        0.5,
        0.9975,
        0.3575,
        0.855,
        0.215,
        0.7125,
        0.0725,
        0.57,
        1.0675,
        0.4275,
        0.925,
        0.285,
        0.785,
        0.1425,
        0.6425
    ],
    "SoftwareVersions": "syngo MR D11",
    "SpacingBetweenSlices": 2.4,
    "StationName": "AWP45239",
    "TaskName": "Resting fmri",
    "TotalReadoutTime": 0.0294501,
    "TxRefAmp": 333.309,
    "WipMemBlock": "6ed72073-efd0-4eb9-8a5f-45f98716af27||Sequence: VD11D r206; Feb 13 2013 18:52:04 by eja",
    "dcmmeta_affine": [
        [
            -2.39583158493042,
            -0.00290455250069499,
            3.715069141208005e-08,
            120.5265884399414
        ],
        [
            -0.00258568674325943,
            2.1327998638153076,
            -1.0933077335357666,
            -81.58604431152344
        ],
        [
            -0.0013231211341917515,
            1.0914088487625122,
            2.1365106105804443,
            -86.00537872314453
        ],
        [
            0.0,
            0.0,
            0.0,
            1.0
        ]
    ],
    "dcmmeta_reorient_transform": [
        [
            0.0,
            -1.0,
            0.0,
            95.0
        ],
        [
            1.0,
            0.0,
            0.0,
            0.0
        ],
        [
            0.0,
            0.0,
            1.0,
            0.0
        ],
        [
            0.0,
            0.0,
            0.0,
            1.0
        ]
    ],
    "dcmmeta_shape": [
        96,
        96,
        64,
        518
    ],
    "dcmmeta_slice_dim": 2,
    "dcmmeta_version": 0.6,
    "global": {
        "const": {
            "AcquisitionMatrix": [
                96,
                0,
                0,
                96
            ],
            "AngioFlag": "N",
            "BitsAllocated": 16,
            "BitsStored": 16,
            "BodyPartExamined": "BRAIN",
            "Columns": 768,
            "EchoNumbers": 1,
            "EchoTime": 30.0,
            "EchoTrainLength": 48,
            "FlipAngle": 63.0,
            "HighBit": 15,
            "ImageOrientationPatient": [
                0.99999926512164,
                0.00107924319523,
                -0.0005522592765,
                -0.0012123350126,
                0.89021214379279,
                -0.4555445854004
            ],
            "ImagePositionPatient": [
                -924.2741072109,
                -838.51948765643,
                384.8364086233
            ],
            "ImageType": [
                "ORIGINAL",
                "PRIMARY",
                "M",
                "ND",
                "NORM",
                "MOSAIC"
            ],
            "ImagedNucleus": "1H",
            "ImagingFrequency": 123.193342,
            "InPlanePhaseEncodingDirection": "COL",
            "MRAcquisitionType": "2D",
            "MagneticFieldStrength": 3.0,
            "Manufacturer": "SIEMENS",
            "ManufacturerModelName": "Skyra",
            "Modality": "MR",
            "NumberOfAverages": 1.0,
            "NumberOfPhaseEncodingSteps": 96,
            "PercentPhaseFieldOfView": 100.0,
            "PercentSampling": 100.0,
            "PerformedProcedureStepStartTime": "072825.187000",
            "PhotometricInterpretation": "MONOCHROME2",
            "PixelBandwidth": 2005.0,
            "PixelRepresentation": 0,
            "PixelSpacing": [
                2.3958332538605,
                2.3958332538605
            ],
            "ProtocolName": "Resting State fMRI MBEPI_matrix96_BW2004",
            "RepetitionTime": 1160.0,
            "Rows": 768,
            "SAR": 0.09448182672093,
            "SamplesPerPixel": 1,
            "ScanOptions": "FS",
            "ScanningSequence": "EP",
            "SequenceName": "epfid2d1_96",
            "SequenceVariant": "SK",
            "SeriesDescription": "Resting State fMRI MBEPI_matrix96_BW2004",
            "SeriesNumber": 6,
            "SeriesTime": "074054.375000",
            "SliceLocation": -39.396982652048,
            "SliceThickness": 2.0,
            "SmallestImagePixelValue": 0,
            "SoftwareVersions": "syngo MR D11",
            "SpacingBetweenSlices": 2.3999999657789,
            "SpecificCharacterSet": "ISO_IR 100",
            "StudyID": "1",
            "StudyTime": "072825.140000",
            "TransmitCoilName": "Body",
            "VariableFlipAngleFlag": "N",
            "WindowCenterWidthExplanation": "Algo1",
            "dBdt": 0.0
        },
        "slices": {}
    },
    "time": {
        "samples": {
            "AcquisitionNumber": [
                1,
                2,
                3,
                4,
                5,
                6,
                7,
                8,
                9,
                10,
                11,
                12,
                13,
                14,
                15,
                16,
                17,
                18,
                19,
                20,
                21,
                22,
                23,
                24,
                25,
                26,
                27,
                28,
                29,
                30,
                31,
                32,
                33,
                34,
                35,
                36,
                37,
                38,
                39,
                40,
                41,
                42,
                43,
                44,
                45,
                46,
                47,
                48,
                49,
                50,
                51,
                52,
                53,
                54,
                55,
                56,
                57,
                58,
                59,
                60,
                61,
                62,
                63,
                64,
                65,
                66,
                67,
                68,
                69,
                70,
                71,
                72,
                73,
                74,
                75,
                76,
                77,
                78,
                79,
                80,
                81,
                82,
                83,
                84,
                85,
                86,
                87,
                88,
                89,
                90,
                91,
                92,
                93,
                94,
                95,
                96,
                97,
                98,
                99,
                100,
                101,
                102,
                103,
                104,
                105,
                106,
                107,
                108,
                109,
                110,
                111,
                112,
                113,
                114,
                115,
                116,
                117,
                118,
                119,
                120,
                121,
                122,
                123,
                124,
                125,
                126,
                127,
                128,
                129,
                130,
                131,
                132,
                133,
                134,
                135,
                136,
                137,
                138,
                139,
                140,
                141,
                142,
                143,
                144,
                145,
                146,
                147,
                148,
                149,
                150,
                151,
                152,
                153,
                154,
                155,
                156,
                157,
                158,
                159,
                160,
                161,
                162,
                163,
                164,
                165,
                166,
                167,
                168,
                169,
                170,
                171,
                172,
                173,
                174,
                175,
                176,
                177,
                178,
                179,
                180,
                181,
                182,
                183,
                184,
                185,
                186,
                187,
                188,
                189,
                190,
                191,
                192,
                193,
                194,
                195,
                196,
                197,
                198,
                199,
                200,
                201,
                202,
                203,
                204,
                205,
                206,
                207,
                208,
                209,
                210,
                211,
                212,
                213,
                214,
                215,
                216,
                217,
                218,
                219,
                220,
                221,
                222,
                223,
                224,
                225,
                226,
                227,
                228,
                229,
                230,
                231,
                232,
                233,
                234,
                235,
                236,
                237,
                238,
                239,
                240,
                241,
                242,
                243,
                244,
                245,
                246,
                247,
                248,
                249,
                250,
                251,
                252,
                253,
                254,
                255,
                256,
                257,
                258,
                259,
                260,
                261,
                262,
                263,
                264,
                265,
                266,
                267,
                268,
                269,
                270,
                271,
                272,
                273,
                274,
                275,
                276,
                277,
                278,
                279,
                280,
                281,
                282,
                283,
                284,
                285,
                286,
                287,
                288,
                289,
                290,
                291,
                292,
                293,
                294,
                295,
                296,
                297,
                298,
                299,
                300,
                301,
                302,
                303,
                304,
                305,
                306,
                307,
                308,
                309,
                310,
                311,
                312,
                313,
                314,
                315,
                316,
                317,
                318,
                319,
                320,
                321,
                322,
                323,
                324,
                325,
                326,
                327,
                328,
                329,
                330,
                331,
                332,
                333,
                334,
                335,
                336,
                337,
                338,
                339,
                340,
                341,
                342,
                343,
                344,
                345,
                346,
                347,
                348,
                349,
                350,
                351,
                352,
                353,
                354,
                355,
                356,
                357,
                358,
                359,
                360,
                361,
                362,
                363,
                364,
                365,
                366,
                367,
                368,
                369,
                370,
                371,
                372,
                373,
                374,
                375,
                376,
                377,
                378,
                379,
                380,
                381,
                382,
                383,
                384,
                385,
                386,
                387,
                388,
                389,
                390,
                391,
                392,
                393,
                394,
                395,
                396,
                397,
                398,
                399,
                400,
                401,
                402,
                403,
                404,
                405,
                406,
                407,
                408,
                409,
                410,
                411,
                412,
                413,
                414,
                415,
                416,
                417,
                418,
                419,
                420,
                421,
                422,
                423,
                424,
                425,
                426,
                427,
                428,
                429,
                430,
                431,
                432,
                433,
                434,
                435,
                436,
                437,
                438,
                439,
                440,
                441,
                442,
                443,
                444,
                445,
                446,
                447,
                448,
                449,
                450,
                451,
                452,
                453,
                454,
                455,
                456,
                457,
                458,
                459,
                460,
                461,
                462,
                463,
                464,
                465,
                466,
                467,
                468,
                469,
                470,
                471,
                472,
                473,
                474,
                475,
                476,
                477,
                478,
                479,
                480,
                481,
                482,
                483,
                484,
                485,
                486,
                487,
                488,
                489,
                490,
                491,
                492,
                493,
                494,
                495,
                496,
                497,
                498,
                499,
                500,
                501,
                502,
                503,
                504,
                505,
                506,
                507,
                508,
                509,
                510,
                511,
                512,
                513,
                514,
                515,
                516,
                517,
                518
            ],
            "AcquisitionTime": [
                "074015.877500",
                "074044.877500",
                "074046.037500",
                "074047.197500",
                "074048.357500",
                "074049.517500",
                "074050.677500",
                "074051.837500",
                "074052.997500",
                "074054.157500",
                "074055.317500",
                "074056.477500",
                "074057.637500",
                "074058.797500",
                "074059.957500",
                "074101.117500",
                "074102.277500",
                "074103.437500",
                "074104.597500",
                "074105.757500",
                "074106.917500",
                "074108.077500",
                "074109.237500",
                "074110.397500",
                "074111.557500",
                "074112.717500",
                "074113.877500",
                "074115.037500",
                "074116.197500",
                "074117.357500",
                "074118.517500",
                "074119.677500",
                "074120.837500",
                "074121.997500",
                "074123.157500",
                "074124.317500",
                "074125.477500",
                "074126.637500",
                "074127.797500",
                "074128.957500",
                "074130.117500",
                "074131.277500",
                "074132.437500",
                "074133.597500",
                "074134.757500",
                "074135.917500",
                "074137.077500",
                "074138.237500",
                "074139.397500",
                "074140.557500",
                "074141.717500",
                "074142.877500",
                "074144.037500",
                "074145.197500",
                "074146.357500",
                "074147.517500",
                "074148.677500",
                "074149.837500",
                "074150.997500",
                "074152.157500",
                "074153.317500",
                "074154.477500",
                "074155.637500",
                "074156.797500",
                "074157.957500",
                "074159.117500",
                "074200.277500",
                "074201.437500",
                "074202.597500",
                "074203.757500",
                "074204.917500",
                "074206.077500",
                "074207.237500",
                "074208.397500",
                "074209.557500",
                "074210.717500",
                "074211.877500",
                "074213.037500",
                "074214.197500",
                "074215.357500",
                "074216.517500",
                "074217.677500",
                "074218.837500",
                "074219.997500",
                "074221.157500",
                "074222.317500",
                "074223.477500",
                "074224.637500",
                "074225.797500",
                "074226.957500",
                "074228.120000",
                "074229.280000",
                "074230.440000",
                "074231.600000",
                "074232.760000",
                "074233.920000",
                "074235.080000",
                "074236.240000",
                "074237.400000",
                "074238.560000",
                "074239.720000",
                "074240.880000",
                "074242.040000",
                "074243.200000",
                "074244.360000",
                "074245.520000",
                "074246.680000",
                "074247.840000",
                "074249.000000",
                "074250.160000",
                "074251.320000",
                "074252.480000",
                "074253.640000",
                "074254.800000",
                "074255.960000",
                "074257.120000",
                "074258.280000",
                "074259.440000",
                "074300.600000",
                "074301.760000",
                "074302.920000",
                "074304.080000",
                "074305.240000",
                "074306.400000",
                "074307.560000",
                "074308.720000",
                "074309.880000",
                "074311.040000",
                "074312.200000",
                "074313.360000",
                "074314.520000",
                "074315.680000",
                "074316.840000",
                "074318.000000",
                "074319.160000",
                "074320.320000",
                "074321.480000",
                "074322.640000",
                "074323.800000",
                "074324.960000",
                "074326.120000",
                "074327.280000",
                "074328.440000",
                "074329.600000",
                "074330.760000",
                "074331.920000",
                "074333.080000",
                "074334.240000",
                "074335.400000",
                "074336.560000",
                "074337.720000",
                "074338.880000",
                "074340.040000",
                "074341.200000",
                "074342.360000",
                "074343.520000",
                "074344.680000",
                "074345.840000",
                "074347.000000",
                "074348.160000",
                "074349.320000",
                "074350.480000",
                "074351.640000",
                "074352.800000",
                "074353.960000",
                "074355.120000",
                "074356.280000",
                "074357.440000",
                "074358.600000",
                "074359.760000",
                "074400.920000",
                "074402.080000",
                "074403.240000",
                "074404.400000",
                "074405.560000",
                "074406.720000",
                "074407.880000",
                "074409.040000",
                "074410.200000",
                "074411.360000",
                "074412.520000",
                "074413.680000",
                "074414.840000",
                "074416.000000",
                "074417.160000",
                "074418.320000",
                "074419.480000",
                "074420.640000",
                "074421.800000",
                "074422.960000",
                "074424.120000",
                "074425.280000",
                "074426.440000",
                "074427.600000",
                "074428.760000",
                "074429.920000",
                "074431.080000",
                "074432.240000",
                "074433.400000",
                "074434.560000",
                "074435.720000",
                "074436.880000",
                "074438.040000",
                "074439.200000",
                "074440.360000",
                "074441.520000",
                "074442.680000",
                "074443.840000",
                "074445.000000",
                "074446.160000",
                "074447.320000",
                "074448.480000",
                "074449.640000",
                "074450.800000",
                "074451.960000",
                "074453.120000",
                "074454.280000",
                "074455.440000",
                "074456.600000",
                "074457.760000",
                "074458.920000",
                "074500.080000",
                "074501.240000",
                "074502.400000",
                "074503.560000",
                "074504.720000",
                "074505.880000",
                "074507.040000",
                "074508.200000",
                "074509.360000",
                "074510.520000",
                "074511.680000",
                "074512.840000",
                "074514.000000",
                "074515.160000",
                "074516.320000",
                "074517.480000",
                "074518.640000",
                "074519.800000",
                "074520.960000",
                "074522.120000",
                "074523.280000",
                "074524.440000",
                "074525.600000",
                "074526.760000",
                "074527.920000",
                "074529.080000",
                "074530.240000",
                "074531.400000",
                "074532.560000",
                "074533.720000",
                "074534.880000",
                "074536.040000",
                "074537.200000",
                "074538.360000",
                "074539.520000",
                "074540.680000",
                "074541.840000",
                "074543.000000",
                "074544.160000",
                "074545.320000",
                "074546.480000",
                "074547.640000",
                "074548.800000",
                "074549.960000",
                "074551.120000",
                "074552.280000",
                "074553.440000",
                "074554.600000",
                "074555.760000",
                "074556.920000",
                "074558.080000",
                "074559.240000",
                "074600.400000",
                "074601.560000",
                "074602.720000",
                "074603.880000",
                "074605.040000",
                "074606.200000",
                "074607.360000",
                "074608.520000",
                "074609.680000",
                "074610.840000",
                "074612.000000",
                "074613.160000",
                "074614.320000",
                "074615.480000",
                "074616.640000",
                "074617.800000",
                "074618.960000",
                "074620.120000",
                "074621.280000",
                "074622.440000",
                "074623.600000",
                "074624.760000",
                "074625.920000",
                "074627.080000",
                "074628.240000",
                "074629.400000",
                "074630.560000",
                "074631.720000",
                "074632.880000",
                "074634.040000",
                "074635.200000",
                "074636.360000",
                "074637.520000",
                "074638.680000",
                "074639.840000",
                "074641.000000",
                "074642.160000",
                "074643.320000",
                "074644.480000",
                "074645.640000",
                "074646.800000",
                "074647.960000",
                "074649.120000",
                "074650.280000",
                "074651.440000",
                "074652.600000",
                "074653.760000",
                "074654.920000",
                "074656.080000",
                "074657.240000",
                "074658.400000",
                "074659.560000",
                "074700.720000",
                "074701.880000",
                "074703.040000",
                "074704.200000",
                "074705.360000",
                "074706.520000",
                "074707.680000",
                "074708.840000",
                "074710.000000",
                "074711.160000",
                "074712.320000",
                "074713.480000",
                "074714.640000",
                "074715.800000",
                "074716.960000",
                "074718.122500",
                "074719.282500",
                "074720.442500",
                "074721.602500",
                "074722.762500",
                "074723.922500",
                "074725.082500",
