{"AcquisitionMatrixPE": 96, "AcquisitionNumber": 1, "AcquisitionTime": "07:55:13.762500", "BaseResolution": 96, "BodyPartExamined": "BRAIN", "ConsistencyInfo": "N4_VD11D_LATEST_20110129", "ConversionSoftware": "dcm2niix", "ConversionSoftwareVersion": "v1.0.20210317", "DeviceSerialNumber": "45239", "DwellTime": 9.2e-06, "EchoNumber": 2, "EchoTime": 0.00738, "EchoTime1": 0.00492, "EchoTime2": 0.00738, "FlipAngle": 50, "ImageOrientationPatientDICOM": [0.998598, 0.0144096, 0.0509276, 0.015544, 0.839946, -0.542448], "ImageType": ["ORIGINAL", "PRIMARY", "P", "ND", "PHASE"], "ImagingFrequency": 123.193, "InPlanePhaseEncodingDirectionDICOM": "COL", "InstitutionAddress": "E 24th St. 100,Austin,Southmiddle,US,78712", "InstitutionName": "Univ of Texas at Austin", "InstitutionalDepartmentName": "IRC", "MRAcquisitionType": "2D", "MagneticFieldStrength": 3, "Manufacturer": "Siemens", "ManufacturersModelName": "Skyra", "Modality": "MR", "PartialFourier": 1, "PatientPosition": "HFS", "PercentPhaseFOV": 100, "PercentSampling": 100, "PhaseEncodingDirection": "j-", "PhaseEncodingSteps": 96, "PhaseResolution": 1, "PixelBandwidth": 565, "ProcedureStepDescription": "Poldrack2^self-scanning", "ProtocolName": "gre_field_mapping", "PulseSequenceDetails": "%SiemensSeq%\\gre_field_mapping", "ReceiveCoilActiveElements": "HEA;HEP", "ReceiveCoilName": "Head_32", "ReconMatrixPE": 96, "RepetitionTime": 0.731, "SAR": 0.130711, "ScanningSequence": "GR", "SequenceName": "*fm2d2r", "SequenceVariant": "SP", "SeriesDescription": "gre_field_mapping", "SeriesNumber": 16, "ShimSetting": [-2775, 8015, -15473, 150, -232, 42, 270, -90], "SliceThickness": 2, "SliceTiming": [0.36719, 0, 0.375, 0.00781, 0.38281, 0.02344, 0.39844, 0.03125, 0.40625, 0.03906, 0.42188, 0.05469, 0.42969, 0.0625, 0.44531, 0.07031, 0.45312, 0.08594, 0.46094, 0.09375, 0.46875, 0.10938, 0.48438, 0.11719, 0.49219, 0.13281, 0.50781, 0.14062, 0.51562, 0.14844, 0.52344, 0.16406, 0.53906, 0.17188, 0.54688, 0.17969, 0.5625, 0.19531, 0.57031, 0.20312, 0.57812, 0.21094, 0.59375, 0.22656, 0.60156, 0.23438, 0.60938, 0.25, 0.625, 0.25781, 0.63281, 0.26562, 0.64062, 0.28125, 0.65625, 0.28906, 0.66406, 0.30469, 0.67969, 0.3125, 0.6875, 0.32031, 0.69531, 0.33594, 0.71094, 0.34375, 0.71875, 0.35156], "SoftwareVersions": "syngo MR D11", "SpacingBetweenSlices": 2.4, "StationName": "AWP45239", "TxRefAmp": 353.054, "dcmmeta_affine": [[-2.392475128173828, 0.03724090754985809, 0.12142324447631836, 109.52721405029297], [-0.03452310711145401, 2.0123703479766846, -1.3019523620605469, -69.94757843017578], [0.1220141127705574, 1.2996138334274292, 2.0125045776367188, -92.9581527709961], [0.0, 0.0, 0.0, 1.0]], "dcmmeta_reorient_transform": [[0.0, -1.0, 0.0, 95.0], [1.0, 0.0, 0.0, 0.0], [0.0, 0.0, -1.0, 67.0], [0.0, 0.0, 0.0, 1.0]], "dcmmeta_shape": [96, 96, 68], "dcmmeta_slice_dim": 2, "dcmmeta_version": 0.6, "global": {"const": {"AcquisitionMatrix": [96, 0, 0, 96], "AcquisitionNumber": 1, "AngioFlag": "N", "BitsAllocated": 16, "BitsStored": 12, "BodyPartExamined": "BRAIN", "Columns": 96, "EchoNumbers": 2, "EchoTime": 7.38, "EchoTrainLength": 0, "FlipAngle": 50.0, "HighBit": 11, "ImageOrientationPatient": [0.99859838705041, 0.01440964559054, 0.05092762996919, 0.01554403072231, 0.83994587619452, -0.5424475165145], "ImageType": ["ORIGINAL", "PRIMARY", "P", "ND"], "ImagedNucleus": "1H", "ImagingFrequency": 123.193372, "InPlanePhaseEncodingDirection": "COL", "MRAcquisitionType": "2D", "MagneticFieldStrength": 3.0, "Manufacturer": "SIEMENS", "ManufacturerModelName": "Skyra", "Modality": "MR", "NumberOfAverages": 1.0, "NumberOfPhaseEncodingSteps": 96, "PercentPhaseFieldOfView": 100.0, "PercentSampling": 100.0, "PerformedProcedureStepStartTime": "072157.046000", "PhotometricInterpretation": "MONOCHROME2", "PixelBandwidth": 565.0, "PixelRepresentation": 0, "PixelSpacing": [2.3958332538605, 2.3958332538605], "ProtocolName": "gre_field_mapping", "RepetitionTime": 731.0, "RescaleIntercept": -4096.0, "RescaleSlope": 2.0, "RescaleType": "US", "Rows": 96, "SAR": 0.13071077894174, "SamplesPerPixel": 1, "ScanningSequence": "GR", "SequenceName": "*fm2d2r", "SequenceVariant": "SP", "SeriesDescription": "gre_field_mapping", "SeriesNumber": 16, "SeriesTime": "075735.031000", "SliceThickness": 2.0, "SoftwareVersions": "syngo MR D11", "SpacingBetweenSlices": 2.4, "SpecificCharacterSet": "ISO_IR 100", "StudyID": "1", "StudyTime": "072157.000000", "TransmitCoilName": "Body", "VariableFlipAngleFlag": "N", "WindowCenterWidthExplanation": "Algo1", "dBdt": 0.0}, "slices": {"AcquisitionTime": ["075513.762500", "075513.397500", "075513.775000", "075513.410000", "075513.785000", "075513.420000", "075513.795000", "075513.430000", "075513.807500", "075513.440000", "075513.817500", "075513.452500", "075513.827500", "075513.462500", "075513.840000", "075513.472500", "075513.850000", "075513.485000", "075513.860000", "075513.495000", "075513.870000", "075513.505000", "075513.882500", "075513.517500", "075513.892500", "075513.527500", "075513.902500", "075513.537500", "075513.915000", "075513.547500", "075513.925000", "075513.560000", "075513.935000", "075513.570000", "075513.947500", "075513.580000", "075513.957500", "075513.592500", "075513.967500", "075513.602500", "075513.977500", "075513.612500", "075513.990000", "075513.625000", "075514.000000", "075513.635000", "075514.010000", "075513.645000", "075514.022500", "075513.655000", "075514.032500", "075513.667500", "075514.042500", "075513.677500", "075514.055000", "075513.687500", "075514.065000", "075513.700000", "075514.075000", "075513.710000", "075514.085000", "075513.720000", "075514.097500", "075513.732500", "075514.107500", "075513.742500", "075514.117500", "075513.752500"], "ContentTime": ["075735.109000", "075735.031000", "075735.125000", "075735.046000", "075735.125000", "075735.046000", "075735.125000", "075735.046000", "075735.125000", "075735.046000", "075735.125000", "075735.062000", "075735.140000", "075735.062000", "075735.140000", "075735.062000", "075735.140000", "075735.062000", "075735.140000", "075735.062000", "075735.140000", "075735.078000", "075735.140000", "075735.078000", "075735.140000", "075735.078000", "075735.140000", "075735.078000", "075735.156000", "075735.078000", "075735.156000", "075735.078000", "075735.156000", "075735.078000", "075735.156000", "075735.078000", "075735.156000", "075735.078000", "075735.156000", "075735.093000", "075735.156000", "075735.093000", "075735.156000", "075735.093000", "075735.156000", "075735.093000", "075735.171000", "075735.093000", "075735.171000", "075735.093000", "075735.171000", "075735.093000", "075735.171000", "075735.093000", "075735.171000", "075735.093000", "075735.171000", "075735.109000", "075735.171000", "075735.109000", "075735.171000", "075735.109000", "075735.187000", "075735.109000", "075735.187000", "075735.109000", "075735.187000", "075735.109000"], "CsaImage.GSWDDataType": ["predicted", "predicted", "predicted", "predicted", "predicted", "predicted", "measured", "predicted", "measured", "predicted", "measured", "predicted", "measured", "predicted", "measured", "predicted", "measured", "predicted", "measured", "predicted", "measured", "predicted", "measured", "predicted", "measured", "predicted", "measured", "predicted", "measured", "predicted", "measured", "predicted", "measured", "predicted", "measured", "predicted", "measured", "predicted", "measured", "predicted", "measured", "predicted", "measured", "predicted", "measured", "predicted", "measured", "predicted", "measured", "predicted", "measured", "predicted", "measured", "predicted", "measured", "predicted", "measured", "predicted", "measured", "predicted", "measured", "predicted", "measured", "predicted", "measured", "predicted", "measured", "predicted"], "CsaImage.ICE_Dims": ["X_2_1_1_1_1_1_35_1_1_1_1_570", "X_2_1_1_1_1_1_1_1_1_2_1_570", "X_2_1_1_1_1_1_36_1_1_3_1_570", "X_2_1_1_1_1_1_2_1_1_4_1_570", "X_2_1_1_1_1_1_37_1_1_5_1_570", "X_2_1_1_1_1_1_3_1_1_6_1_570", "X_2_1_1_1_1_1_38_1_1_7_1_570", "X_2_1_1_1_1_1_4_1_1_8_1_570", "X_2_1_1_1_1_1_39_1_1_9_1_570", "X_2_1_1_1_1_1_5_1_1_10_1_570", "X_2_1_1_1_1_1_40_1_1_11_1_570", "X_2_1_1_1_1_1_6_1_1_12_1_570", "X_2_1_1_1_1_1_41_1_1_13_1_570", "X_2_1_1_1_1_1_7_1_1_14_1_570", "X_2_1_1_1_1_1_42_1_1_15_1_570", "X_2_1_1_1_1_1_8_1_1_16_1_570", "X_2_1_1_1_1_1_43_1_1_17_1_570", "X_2_1_1_1_1_1_9_1_1_18_1_570", "X_2_1_1_1_1_1_44_1_1_19_1_570", "X_2_1_1_1_1_1_10_1_1_20_1_570", "X_2_1_1_1_1_1_45_1_1_21_1_570", "X_2_1_1_1_1_1_11_1_1_22_1_570", "X_2_1_1_1_1_1_46_1_1_23_1_570", "X_2_1_1_1_1_1_12_1_1_24_1_570", "X_2_1_1_1_1_1_47_1_1_25_1_570", "X_2_1_1_1_1_1_13_1_1_26_1_570", "X_2_1_1_1_1_1_48_1_1_27_1_570", "X_2_1_1_1_1_1_14_1_1_28_1_570", "X_2_1_1_1_1_1_49_1_1_29_1_570", "X_2_1_1_1_1_1_15_1_1_30_1_570", "X_2_1_1_1_1_1_50_1_1_31_1_570", "X_2_1_1_1_1_1_16_1_1_32_1_570", "X_2_1_1_1_1_1_51_1_1_33_1_570", "X_2_1_1_1_1_1_17_1_1_34_1_570", "X_2_1_1_1_1_1_52_1_1_35_1_570", "X_2_1_1_1_1_1_18_1_1_36_1_570", "X_2_1_1_1_1_1_53_1_1_37_1_570", "X_2_1_1_1_1_1_19_1_1_38_1_570", "X_2_1_1_1_1_1_54_1_1_39_1_570", "X_2_1_1_1_1_1_20_1_1_40_1_570", "X_2_1_1_1_1_1_55_1_1_41_1_570", "X_2_1_1_1_1_1_21_1_1_42_1_570", "X_2_1_1_1_1_1_56_1_1_43_1_570", "X_2_1_1_1_1_1_22_1_1_44_1_570", "X_2_1_1_1_1_1_57_1_1_45_1_570", "X_2_1_1_1_1_1_23_1_1_46_1_570", "X_2_1_1_1_1_1_58_1_1_47_1_570", "X_2_1_1_1_1_1_24_1_1_48_1_570", "X_2_1_1_1_1_1_59_1_1_49_1_570", "X_2_1_1_1_1_1_25_1_1_50_1_570", "X_2_1_1_1_1_1_60_1_1_51_1_570", "X_2_1_1_1_1_1_26_1_1_52_1_570", "X_2_1_1_1_1_1_61_1_1_53_1_570", "X_2_1_1_1_1_1_27_1_1_54_1_570", "X_2_1_1_1_1_1_62_1_1_55_1_570", "X_2_1_1_1_1_1_28_1_1_56_1_570", "X_2_1_1_1_1_1_63_1_1_57_1_570", "X_2_1_1_1_1_1_29_1_1_58_1_570", "X_2_1_1_1_1_1_64_1_1_59_1_570", "X_2_1_1_1_1_1_30_1_1_60_1_570", "X_2_1_1_1_1_1_65_1_1_61_1_570", "X_2_1_1_1_1_1_31_1_1_62_1_570", "X_2_1_1_1_1_1_66_1_1_63_1_570", "X_2_1_1_1_1_1_32_1_1_64_1_570", "X_2_1_1_1_1_1_67_1_1_65_1_570", "X_2_1_1_1_1_1_33_1_1_66_1_570", "X_2_1_1_1_1_1_68_1_1_67_1_570", "X_2_1_1_1_1_1_34_1_1_68_1_570"], "CsaImage.ProtocolSliceNumber": [0, 1, 2, 3, 4, 5, 6, 7, 8, 9, 10, 11, 12, 13, 14, 15, 16, 17, 18, 19, 20, 21, 22, 23, 24, 25, 26, 27, 28, 29, 30, 31, 32, 33, 34, 35, 36, 37, 38, 39, 40, 41, 42, 43, 44, 45, 46, 47, 48, 49, 50, 51, 52, 53, 54, 55, 56, 57, 58, 59, 60, 61, 62, 63, 64, 65, 66, 67], "CsaImage.RFSWDDataType": ["predicted", "predicted", "predicted", "predicted", "measured", "predicted", "measured", "predicted", "measured", "predicted", "measured", "predicted", "measured", "predicted", "measured", "predicted", "measured", "predicted", "measured", "predicted", "measured", "predicted", "measured", "predicted", "measured", "predicted", "measured", "predicted", "measured", "predicted", "measured", "predicted", "measured", "predicted", "measured", "predicted", "measured", "predicted", "measured", "predicted", "measured", "predicted", "measured", "predicted", "measured", "predicted", "measured", "predicted", "measured", "predicted", "measured", "predicted", "measured", "predicted", "measured", "predicted", "measured", "predicted", "measured", "predicted", "measured", "predicted", "measured", "predicted", "measured", "predicted", "measured", "predicted"], "CsaImage.SlicePosition_PCS": [[-113.06511395, -121.22738512, 30.50498871], [-113.18653696, -119.92543657, 32.51749519], [-113.3079602, -118.62348612, 34.53000358], [-113.42938321, -117.32153757, 36.54251007], [-113.55080621, -116.01958902, 38.55501655], [-113.67222922, -114.71763857, 40.56752399], [-113.79365223, -113.41569002, 42.58003143], [-113.91507547, -112.11374052, 44.59253792], [-114.03649848, -110.81179197, 46.60504535], [-114.15792148, -109.50984247, 48.61755232], [-114.27934449, -108.20789297, 50.63005928], [-114.4007675, -106.90594442, 52.64256648], [-114.52219074, -105.60399492, 54.65507344], [-114.64361375, -104.30204542, 56.66758054], [-114.76503675, -103.0000964, 58.6800876], [-114.88645988, -101.69814713, 60.69259456], [-115.00788288, -100.39619787, 62.70510153], [-115.12930589, -99.09424879, 64.71760849], [-115.25072901, -97.79229955, 66.73011593], [-115.37215202, -96.49035032, 68.74262337], [-115.49357515, -95.18840106, 70.75512985], [-115.61499815, -93.8864518, 72.76763634], [-115.73642122, -92.58450277, 74.78014473], [-115.85784428, -91.28255375, 76.79265121], [-115.97926735, -89.98060472, 78.8051577], [-116.10069041, -88.67865522, 80.81766609], [-116.22211345, -87.37670572, 82.83017257], [-116.34353649, -86.07475622, 84.84267906], [-116.46495955, -84.77280767, 86.85518745], [-116.58638261, -83.47085817, 88.86769203], [-116.70780567, -82.16890962, 90.88020042], [-116.82922872, -80.86695917, 92.89270881], [-116.95065178, -79.56501062, 94.90521339], [-117.07207482, -78.26306207, 96.91772178], [-117.19349789, -76.96111162, 98.93023018], [-117.31492095, -75.65916307, 100.94273475], [-117.43634402, -74.35721453, 102.95524315], [-117.55776708, -73.05526407, 104.96775154], [-117.67919009, -71.75331552, 106.98025612], [-117.80061321, -70.45136698, 108.99276451], [-117.92203622, -69.14941652, 111.0052729], [-118.04345923, -67.84746797, 113.01777748], [-118.16488235, -66.54551943, 115.03028587], [-118.28630536, -65.24356897, 117.04279426], [-118.40772848, -63.94162042, 119.05529884], [-118.52915149, -62.63967188, 121.06780723], [-118.65057461, -61.33772333, 123.08031181], [-118.77199762, -60.03577097, 125.09282402], [-118.89342063, -58.73382242, 127.1053286], [-119.01484363, -57.43187387, 129.11783317], [-119.13626688, -56.12992533, 131.13034538], [-119.25768988, -54.82797678, 133.14284996], [-119.37911289, -53.52602823, 135.15535454], [-119.5005359, -52.22407587, 137.16786674], [-119.6219589, -50.92212732, 139.18037132], [-119.74338215, -49.62017877, 141.1928759], [-119.86480515, -48.31823023, 143.20538811], [-119.98622816, -47.01628168, 145.21789268], [-120.10765116, -45.71432932, 147.23039726], [-120.22907441, -44.41238077, 149.24290184], [-120.35049741, -43.11043222, 151.25541404], [-120.47192042, -41.80848367, 153.26791862], [-120.59334343, -40.50653513, 155.2804232], [-120.71476643, -39.20458658, 157.29293541], [-120.83618968, -37.90263422, 159.30543998], [-120.95761245, -36.60068567, 161.31794456], [-121.07903569, -35.29873712, 163.33045677], [-121.20045893, -33.99678476, 165.34296135]], "CsaImage.TimeAfterStart": [1.1, 0.735, 1.11, 0.745, 1.12, 0.755, 1.1325, 0.7675, 1.1425, 0.7775, 1.1525, 0.7875, 1.165, 0.7975, 1.175, 0.81, 1.185, 0.82, 1.1975, 0.83, 1.2075, 0.8425, 1.2175, 0.8525, 1.2275, 0.8625, 1.24, 0.875, 1.25, 0.885, 1.26, 0.895, 1.2725, 0.905, 1.2825, 0.9175, 1.2925, 0.9275, 1.305, 0.9375, 1.315, 0.95, 1.325, 0.96, 1.335, 0.97, 1.3475, 0.9825, 1.3575, 0.9925, 1.3675, 1.0025, 1.38, 1.0125, 1.39, 1.025, 1.4, 1.035, 1.4125, 1.045, 1.4225, 1.0575, 1.4325, 1.0675, 1.4425, 1.0775, 1.455, 1.09], "ImagePositionPatient": [[-113.06511395183, -121.22738511837, 30.504988706249], [-113.18653695789, -119.925436571, 32.517495191234], [-113.30796020236, -118.62348611629, 34.530003583568], [-113.42938320842, -117.32153756893, 36.542510068554], [-113.55080621448, -116.01958902156, 38.555016553539], [-113.67222922054, -114.71763856685, 40.567523992199], [-113.79365222659, -113.41569001949, 42.580031430858], [-113.91507547107, -112.11374051845, 44.592537915844], [-114.03649847713, -110.81179197109, 46.605045354503], [-114.15792148318, -109.50984247005, 48.617552316326], [-114.27934448924, -108.20789296901, 50.630059278148], [-114.4007674953, -106.90594442165, 52.642566478389], [-114.52219073978, -105.60399492061, 54.655073440212], [-114.64361374583, -104.30204541957, 56.667580536145], [-114.76503675189, -103.00009639537, 58.680087602276], [-114.88645987716, -101.69814713276, 60.692594564098], [-115.00788288322, -100.39619787014, 62.705101525921], [-115.12930588927, -99.094248786331, 64.717608487743], [-115.25072901454, -97.792299553514, 66.730115926403], [-115.3721520206, -96.490350320698, 68.742623365062], [-115.49357514587, -95.188401058079, 70.755129850048], [-115.61499815192, -93.88645179546, 72.767636335033], [-115.73642121759, -92.584502771259, 74.780144727367], [-115.85784428325, -91.282553747059, 76.792651212352], [-115.97926734891, -89.980604722858, 78.805157697338], [-116.10069041457, -88.678655221821, 80.817666089672], [-116.22211345043, -87.376705720783, 82.830172574657], [-116.34353648629, -86.074756219745, 84.842679059642], [-116.46495955196, -84.772807672382, 86.855187451976], [-116.58638261017, -83.470858171345, 88.867692029613], [-116.70780566838, -82.168909623981, 90.880200421947], [-116.82922871914, -80.866959169269, 92.892708814281], [-116.9506517848, -79.565010621906, 94.905213391918], [-117.07207482066, -78.263062074543, 96.917721784252], [-117.19349788633, -76.961111619831, 98.930230176586], [-117.31492095199, -75.659163072468, 100.94273475422], [-117.43634401765, -74.357214525104, 102.95524314656], [-117.55776708331, -73.055264070392, 104.96775153889], [-117.67919008937, -71.753315523029, 106.98025611653], [-117.80061321464, -70.451366975666, 108.99276450886], [-117.9220362207, -69.149416520954, 111.0052729012], [-118.04345922675, -67.847467973591, 113.01777747883], [-118.16488235202, -66.545519426227, 115.03028587117], [-118.28630535808, -65.243568971515, 117.0427942635], [-118.40772848334, -63.941620424152, 119.05529884114], [-118.5291514894, -62.639671876789, 121.06780723347], [-118.65057461467, -61.337723329426, 123.08031181111], [-118.77199762073, -60.035770967365, 125.09282401814], [-118.89342062679, -58.733822420002, 127.10532859578], [-119.01484363284, -57.431873872639, 129.11783317341], [-119.13626687732, -56.129925325275, 131.13034538044], [-119.25768988338, -54.827976777912, 133.14284995808], [-119.37911288943, -53.526028230549, 135.15535453572], [-119.50053589549, -52.224075868488, 137.16786674275], [-119.62195890155, -50.922127321125, 139.18037132038], [-119.74338214603, -49.620178773762, 141.19287589802], [-119.86480515208, -48.318230226398, 143.20538810505], [-119.98622815814, -47.016281679035, 145.21789268269], [-120.1076511642, -45.714329316974, 147.23039726033], [-120.22907440868, -44.412380769611, 149.24290183796], [-120.35049741473, -43.110432222248, 151.25541404499], [-120.47192042079, -41.808483674885, 153.26791862263], [-120.59334342685, -40.506535127521, 155.28042320027], [-120.71476643291, -39.204586580158, 157.2929354073], [-120.83618967738, -37.902634218097, 159.30543998494], [-120.95761244502, -36.600685670734, 161.31794456257], [-121.0790356895, -35.298737123371, 163.3304567696], [-121.20045893398, -33.99678476131, 165.34296134724]], "InstanceCreationTime": ["075735.109000", "075735.031000", "075735.125000", "075735.046000", "075735.125000", "075735.046000", "075735.125000", "075735.046000", "075735.125000", "075735.046000", "075735.125000", "075735.062000", "075735.140000", "075735.062000", "075735.140000", "075735.062000", "075735.140000", "075735.062000", "075735.140000", "075735.062000", "075735.140000", "075735.078000", "075735.140000", "075735.078000", "075735.140000", "075735.078000", "075735.140000", "075735.078000", "075735.156000", "075735.078000", "075735.156000", "075735.078000", "075735.156000", "075735.078000", "075735.156000", "075735.078000", "075735.156000", "075735.078000", "075735.156000", "075735.093000", "075735.156000", "075735.093000", "075735.156000", "075735.093000", "075735.156000", "075735.093000", "075735.171000", "075735.093000", "075735.171000", "075735.093000", "075735.171000", "075735.093000", "075735.171000", "075735.093000", "075735.171000", "075735.093000", "075735.171000", "075735.109000", "075735.171000", "075735.109000", "075735.171000", "075735.109000", "075735.187000", "075735.109000", "075735.187000", "075735.109000", "075735.187000", "075735.109000"], "InstanceNumber": [1, 2, 3, 4, 5, 6, 7, 8, 9, 10, 11, 12, 13, 14, 15, 16, 17, 18, 19, 20, 21, 22, 23, 24, 25, 26, 27, 28, 29, 30, 31, 32, 33, 34, 35, 36, 37, 38, 39, 40, 41, 42, 43, 44, 45, 46, 47, 48, 49, 50, 51, 52, 53, 54, 55, 56, 57, 58, 59, 60, 61, 62, 63, 64, 65, 66, 67, 68], "LargestImagePixelValue": [4093, 4094, 4094, 4094, 4094, 4092, 4094, 4094, 4093, 4093, 4092, 4093, 4094, 4093, 4094, 4092, 4094, 4094, 4094, 4087, 4094, 4094, 4094, 4092, 4094, 4093, 4094, 4093, 4086, 4094, 4094, 4092, 4090, 4094, 4089, 4091, 4090, 4087, 4091, 4092, 4090, 4094, 4092, 4094, 4094, 4094, 4093, 4091, 4092, 4094, 4093, 4094, 4094, 4093, 4093, 4092, 4094, 4094, 4094, 4094, 4093, 4094, 4094, 4093, 4094, 4094, 4094, 4094], "SliceLocation": [-34.463201468143, -32.063202318458, -29.663200522618, -27.263201372933, -24.863202223247, -22.463201239167, -20.063201289784, -17.663201610688, -15.263201661305, -12.863201594422, -10.46320152754, -8.0632017780806, -5.6632016991358, -3.2632015197956, -0.8632016241202, 1.5367983194565, 3.936798257002, 6.3367980975447, 8.7367984248034, 11.136798746031, 13.536798289758, 15.936797827455, 18.336798838226, 20.736798249601, 23.136797660976, 25.536798930422, 27.936798598963, 30.336798267504, 32.736799019602, 35.136797089877, 37.536797841597, 39.936799627637, 42.336797180941, 44.736797931531, 47.136799718325, 49.536797271629, 51.936798023726, 54.33679981052, 56.736797360809, 59.136798115922, 61.5367998997, 63.936797449988, 66.336798205102, 68.73679998888, 71.136797545199, 73.536798294281, 75.936795850601, 78.336801867869, 80.736799418158, 83.136796968446, 85.536800928384, 87.936798478672, 90.33679602896, 92.736802046229, 95.136799596517, 97.536797158868, 99.936801106744, 102.33679865703, 104.73679827671, 107.13679583906, 109.53679978694, 111.93679733723, 114.33679488752, 116.73679883539, 119.13679846713, 121.53679600536, 123.9367999653, 126.33679959704], "SmallestImagePixelValue": [0, 0, 0, 0, 0, 0, 2, 0, 1, 1, 1, 0, 0, 3, 0, 7, 0, 2, 2, 0, 3, 0, 0, 2, 1, 3, 1, 3, 0, 1, 7, 6, 0, 4, 2, 3, 0, 3, 0, 0, 0, 2, 0, 0, 1, 1, 0, 2, 0, 0, 0, 0, 0, 2, 0, 0, 1, 0, 0, 0, 0, 1, 0, 3, 0, 1, 0, 0], "WindowCenter": [-194.0, -192.0, -312.0, -352.0, -372.0, -384.0, -368.0, -402.0, -314.0, -290.0, -330.0, -322.0, -344.0, -316.0, -298.0, -290.0, -322.0, -278.0, -290.0, -256.0, -372.0, -330.0, -308.0, -296.0, -282.0, -250.0, -234.0, -220.0, -206.0, -210.0, -220.0, -224.0, -222.0, -248.0, -220.0, -196.0, -158.0, -168.0, -168.0, -186.0, -184.0, -212.0, -248.0, -234.0, -264.0, -264.0, -252.0, -234.0, -222.0, -224.0, -240.0, -252.0, -252.0, -260.0, -258.0, -262.0, -276.0, -314.0, -336.0, -426.0, -408.0, -464.0, -468.0, -498.0, -504.0, -490.0, -532.0, -484.0], "WindowWidth": [6568.0, 6578.0, 6502.0, 6498.0, 6484.0, 6534.0, 6446.0, 6362.0, 6294.0, 6204.0, 6190.0, 6152.0, 6040.0, 6044.0, 5934.0, 5794.0, 5628.0, 5534.0, 5346.0, 5218.0, 4696.0, 4670.0, 4646.0, 4644.0, 4588.0, 4564.0, 4538.0, 4514.0, 4512.0, 4510.0, 4506.0, 4504.0, 4486.0, 4502.0, 4504.0, 4532.0, 4526.0, 4552.0, 4562.0, 4586.0, 4596.0, 4604.0, 4622.0, 4608.0, 4616.0, 4622.0, 4612.0, 4614.0, 4604.0, 4624.0, 4616.0, 4640.0, 4652.0, 4662.0, 4674.0, 4680.0, 4732.0, 4780.0, 4800.0, 4836.0, 4884.0, 4958.0, 4972.0, 5016.0, 5046.0, 5068.0, 5128.0, 5158.0]}}}