{"AcquisitionMatrixPE": 96, "AcquisitionNumber": 1, "AcquisitionTime": "07:54:34.270000", "BandwidthPerPixelPhaseEncode": 33.602, "BaseResolution": 96, "BodyPartExamined": "BRAIN", "ConsistencyInfo": "N4_VD11D_LATEST_20110129", "ConversionSoftware": "dcm2niix", "ConversionSoftwareVersion": "v1.0.20210317", "DerivedVendorReportedEchoSpacing": 0.000620003, "DeviceSerialNumber": "45239", "DwellTime": 2.6e-06, "EchoTime": 0.03, "EchoTrainLength": 48, "EffectiveEchoSpacing": 0.000310001, "FlipAngle": 63, "ImageComments": "Unaliased MB4/PE3", "ImageOrientationPatientDICOM": [0.99989, -0.0133988, 0.00630502, 0.0148081, 0.904728, -0.425733], "ImageType": ["ORIGINAL", "PRIMARY", "M", "ND", "NORM", "MOSAIC"], "ImagingFrequency": 123.193, "InPlanePhaseEncodingDirectionDICOM": "COL", "InstitutionAddress": "E 24th St. 100,Austin,Southmiddle,US,78712", "InstitutionName": "Univ of Texas at Austin", "InstitutionalDepartmentName": "IRC", "MRAcquisitionType": "2D", "MagneticFieldStrength": 3, "Manufacturer": "Siemens", "ManufacturersModelName": "Skyra", "Modality": "MR", "MultibandAccelerationFactor": 4, "ParallelReductionFactorInPlane": 2, "PartialFourier": 1, "PatientPosition": "HFS", "PercentPhaseFOV": 100, "PercentSampling": 100, "PhaseEncodingDirection": "j-", "PhaseEncodingSteps": 96, "PhaseResolution": 1, "PixelBandwidth": 2005, "ProcedureStepDescription": "Poldrack2^self-scanning", "ProtocolName": "Resting State fMRI MBEPI_matrix96_BW2004", "PulseSequenceDetails": "%CustomerSeq%\\cmrr_mbep2d_bold", "ReceiveCoilActiveElements": "HEA;HEP", "ReceiveCoilName": "Head_32", "ReconMatrixPE": 96, "RefLinesPE": 94, "RepetitionTime": 1.16, "SAR": 0.0977499, "ScanOptions": "FS", "ScanningSequence": "EP", "SequenceName": "epfid2d1_96", "SequenceVariant": "SK", "SeriesDescription": "Resting State fMRI MBEPI_matrix96_BW2004", "SeriesNumber": 6, "ShimSetting": [-2757, 8038, -15381, 174, -191, 93, 265, -60], "SliceThickness": 2, "SliceTiming": [0, 0.5, 0.9975, 0.3575, 0.855, 0.215, 0.7125, 0.0725, 0.57, 1.07, 0.4275, 0.9275, 0.285, 0.785, 0.1425, 0.6425, 0, 0.5, 0.9975, 0.3575, 0.855, 0.215, 0.7125, 0.0725, 0.57, 1.07, 0.4275, 0.9275, 0.285, 0.785, 0.1425, 0.6425, 0, 0.5, 0.9975, 0.3575, 0.855, 0.215, 0.7125, 0.0725, 0.57, 1.07, 0.4275, 0.9275, 0.285, 0.785, 0.1425, 0.6425, 0, 0.5, 0.9975, 0.3575, 0.855, 0.215, 0.7125, 0.0725, 0.57, 1.07, 0.4275, 0.9275, 0.285, 0.785, 0.1425, 0.6425], "SoftwareVersions": "syngo MR D11", "SpacingBetweenSlices": 2.4, "StationName": "AWP45239", "TaskName": "Resting fmri", "TotalReadoutTime": 0.0294501, "TxRefAmp": 334.281, "WipMemBlock": "4148020c-6e45-42eb-bd99-de6f4063d5d2||Sequence: VD11D r206; Feb 13 2013 18:52:04 by eja", "dcmmeta_affine": [[-2.3955705165863037, 0.035477831959724426, 6.015243769752487e-08, 115.41703033447266], [0.03210127726197243, 2.167577028274536, -1.0218702554702759, -93.83051300048828], [0.015105780214071274, 1.0199843645095825, 2.1715848445892334, -73.00067138671875], [0.0, 0.0, 0.0, 1.0]], "dcmmeta_reorient_transform": [[0.0, -1.0, 0.0, 95.0], [1.0, 0.0, 0.0, 0.0], [0.0, 0.0, 1.0, 0.0], [0.0, 0.0, 0.0, 1.0]], "dcmmeta_shape": [96, 96, 64, 518], "dcmmeta_slice_dim": 2, "dcmmeta_version": 0.6, "global": {"const": {"AcquisitionMatrix": [96, 0, 0, 96], "AngioFlag": "N", "BitsAllocated": 16, "BitsStored": 16, "BodyPartExamined": "BRAIN", "Columns": 768, "EchoNumbers": 1, "EchoTime": 30.0, "EchoTrainLength": 48, "FlipAngle": 63.0, "HighBit": 15, "ImageOrientationPatient": [0.99989035350149, -0.0133987938813, 0.00630502158537, 0.01480813879816, 0.90472783950928, -0.425732610264], "ImagePositionPatient": [-935.61968196899, -829.60916251943, 361.53703837061], "ImageType": ["ORIGINAL", "PRIMARY", "M", "ND", "NORM", "MOSAIC"], "ImagedNucleus": "1H", "ImagingFrequency": 123.193162, "InPlanePhaseEncodingDirection": "COL", "MRAcquisitionType": "2D", "MagneticFieldStrength": 3.0, "Manufacturer": "SIEMENS", "ManufacturerModelName": "Skyra", "Modality": "MR", "NumberOfAverages": 1.0, "NumberOfPhaseEncodingSteps": 96, "PercentPhaseFieldOfView": 100.0, "PercentSampling": 100.0, "PerformedProcedureStepStartTime": "073452.687000", "PhotometricInterpretation": "MONOCHROME2", "PixelBandwidth": 2005.0, "PixelRepresentation": 0, "PixelSpacing": [2.3958332538605, 2.3958332538605], "ProtocolName": "Resting State fMRI MBEPI_matrix96_BW2004", "RepetitionTime": 1160.0, "Rows": 768, "SAR": 0.09774987703679, "SamplesPerPixel": 1, "ScanOptions": "FS", "ScanningSequence": "EP", "SequenceName": "epfid2d1_96", "SequenceVariant": "SK", "SeriesDescription": "Resting State fMRI MBEPI_matrix96_BW2004", "SeriesNumber": 6, "SeriesTime": "075512.359000", "SliceLocation": -26.10188949989, "SliceThickness": 2.0, "SmallestImagePixelValue": 0, "SoftwareVersions": "syngo MR D11", "SpacingBetweenSlices": 2.3999999629471, "SpecificCharacterSet": "ISO_IR 100", "StudyID": "1", "StudyTime": "073452.578000", "TransmitCoilName": "Body", "VariableFlipAngleFlag": "N", "WindowCenterWidthExplanation": "Algo1", "dBdt": 0.0}, "slices": {}}, "time": {"samples": {"AcquisitionNumber": [1, 2, 3, 4, 5, 6, 7, 8, 9, 10, 11, 12, 13, 14, 15, 16, 17, 18, 19, 20, 21, 22, 23, 24, 25, 26, 27, 28, 29, 30, 31, 32, 33, 34, 35, 36, 37, 38, 39, 40, 41, 42, 43, 44, 45, 46, 47, 48, 49, 50, 51, 52, 53, 54, 55, 56, 57, 58, 59, 60, 61, 62, 63, 64, 65, 66, 67, 68, 69, 70, 71, 72, 73, 74, 75, 76, 77, 78, 79, 80, 81, 82, 83, 84, 85, 86, 87, 88, 89, 90, 91, 92, 93, 94, 95, 96, 97, 98, 99, 100, 101, 102, 103, 104, 105, 106, 107, 108, 109, 110, 111, 112, 113, 114, 115, 116, 117, 118, 119, 120, 121, 122, 123, 124, 125, 126, 127, 128, 129, 130, 131, 132, 133, 134, 135, 136, 137, 138, 139, 140, 141, 142, 143, 144, 145, 146, 147, 148, 149, 150, 151, 152, 153, 154, 155, 156, 157, 158, 159, 160, 161, 162, 163, 164, 165, 166, 167, 168, 169, 170, 171, 172, 173, 174, 175, 176, 177, 178, 179, 180, 181, 182, 183, 184, 185, 186, 187, 188, 189, 190, 191, 192, 193, 194, 195, 196, 197, 198, 199, 200, 201, 202, 203, 204, 205, 206, 207, 208, 209, 210, 211, 212, 213, 214, 215, 216, 217, 218, 219, 220, 221, 222, 223, 224, 225, 226, 227, 228, 229, 230, 231, 232, 233, 234, 235, 236, 237, 238, 239, 240, 241, 242, 243, 244, 245, 246, 247, 248, 249, 250, 251, 252, 253, 254, 255, 256, 257, 258, 259, 260, 261, 262, 263, 264, 265, 266, 267, 268, 269, 270, 271, 272, 273, 274, 275, 276, 277, 278, 279, 280, 281, 282, 283, 284, 285, 286, 287, 288, 289, 290, 291, 292, 293, 294, 295, 296, 297, 298, 299, 300, 301, 302, 303, 304, 305, 306, 307, 308, 309, 310, 311, 312, 313, 314, 315, 316, 317, 318, 319, 320, 321, 322, 323, 324, 325, 326, 327, 328, 329, 330, 331, 332, 333, 334, 335, 336, 337, 338, 339, 340, 341, 342, 343, 344, 345, 346, 347, 348, 349, 350, 351, 352, 353, 354, 355, 356, 357, 358, 359, 360, 361, 362, 363, 364, 365, 366, 367, 368, 369, 370, 371, 372, 373, 374, 375, 376, 377, 378, 379, 380, 381, 382, 383, 384, 385, 386, 387, 388, 389, 390, 391, 392, 393, 394, 395, 396, 397, 398, 399, 400, 401, 402, 403, 404, 405, 406, 407, 408, 409, 410, 411, 412, 413, 414, 415, 416, 417, 418, 419, 420, 421, 422, 423, 424, 425, 426, 427, 428, 429, 430, 431, 432, 433, 434, 435, 436, 437, 438, 439, 440, 441, 442, 443, 444, 445, 446, 447, 448, 449, 450, 451, 452, 453, 454, 455, 456, 457, 458, 459, 460, 461, 462, 463, 464, 465, 466, 467, 468, 469, 470, 471, 472, 473, 474, 475, 476, 477, 478, 479, 480, 481, 482, 483, 484, 485, 486, 487, 488, 489, 490, 491, 492, 493, 494, 495, 496, 497, 498, 499, 500, 501, 502, 503, 504, 505, 506, 507, 508, 509, 510, 511, 512, 513, 514, 515, 516, 517, 518], "AcquisitionTime": ["075434.270000", "075503.267500", "075504.427500", "075505.587500", "075506.747500", "075507.907500", "075509.067500", "075510.227500", "075511.387500", "075512.547500", "075513.707500", "075514.867500", "075516.027500", "075517.187500", "075518.347500", "075519.507500", "075520.667500", "075521.827500", "075522.987500", "075524.147500", "075525.307500", "075526.467500", "075527.627500", "075528.787500", "075529.947500", "075531.107500", "075532.267500", "075533.430000", "075534.590000", "075535.750000", "075536.910000", "075538.070000", "075539.230000", "075540.390000", "075541.550000", "075542.710000", "075543.870000", "075545.030000", "075546.190000", "075547.350000", "075548.510000", "075549.670000", "075550.830000", "075551.990000", "075553.150000", "075554.310000", "075555.470000", "075556.630000", "075557.790000", "075558.950000", "075600.110000", "075601.270000", "075602.430000", "075603.590000", "075604.750000", "075605.910000", "075607.070000", "075608.230000", "075609.390000", "075610.550000", "075611.710000", "075612.870000", "075614.030000", "075615.190000", "075616.350000", "075617.510000", "075618.670000", "075619.830000", "075620.990000", "075622.150000", "075623.310000", "075624.470000", "075625.630000", "075626.790000", "075627.950000", "075629.110000", "075630.270000", "075631.430000", "075632.590000", "075633.750000", "075634.910000", "075636.070000", "075637.230000", "075638.390000", "075639.550000", "075640.710000", "075641.870000", "075643.030000", "075644.190000", "075645.350000", "075646.510000", "075647.670000", "075648.830000", "075649.990000", "075651.150000", "075652.310000", "075653.470000", "075654.630000", "075655.790000", "075656.950000", "075658.110000", "075659.270000", "075700.430000", "075701.590000", "075702.750000", "075703.910000", "075705.070000", "075706.230000", "075707.390000", "075708.550000", "075709.710000", "075710.870000", "075712.030000", "075713.190000", "075714.350000", "075715.510000", "075716.670000", "075717.830000", "075718.990000", "075720.150000", "075721.310000", "075722.470000", "075723.630000", "075724.790000", "075725.950000", "075727.110000", "075728.270000", "075729.430000", "075730.590000", "075731.750000", "075732.910000", "075734.070000", "075735.230000", "075736.390000", "075737.550000", "075738.710000", "075739.870000", "075741.030000", "075742.190000", "075743.350000", "075744.510000", "075745.670000", "075746.830000", "075747.990000", "075749.150000", "075750.310000", "075751.470000", "075752.630000", "075753.790000", "075754.950000", "075756.110000", "075757.270000", "075758.430000", "075759.590000", "075800.750000", "075801.910000", "075803.070000", "075804.230000", "075805.390000", "075806.550000", "075807.710000", "075808.870000", "075810.030000", "075811.190000", "075812.350000", "075813.510000", "075814.670000", "075815.830000", "075816.990000", "075818.150000", "075819.310000", "075820.470000", "075821.630000", "075822.790000", "075823.950000", "075825.110000", "075826.270000", "075827.430000", "075828.590000", "075829.750000", "075830.910000", "075832.070000", "075833.230000", "075834.390000", "075835.550000", "075836.710000", "075837.870000", "075839.030000", "075840.190000", "075841.350000", "075842.510000", "075843.670000", "075844.830000", "075845.990000", "075847.150000", "075848.310000", "075849.470000", "075850.630000", "075851.790000", "075852.950000", "075854.110000", "075855.270000", "075856.430000", "075857.590000", "075858.750000", "075859.910000", "075901.070000", "075902.230000", "075903.390000", "075904.550000", "075905.710000", "075906.870000", "075908.030000", "075909.190000", "075910.350000", "075911.510000", "075912.670000", "075913.830000", "075914.990000", "075916.150000", "075917.310000", "075918.470000", "075919.630000", "075920.790000", "075921.950000", "075923.110000", "075924.270000", "075925.430000", "075926.590000", "075927.750000", "075928.910000", "075930.070000", "075931.230000", "075932.390000", "075933.550000", "075934.710000", "075935.870000", "075937.030000", "075938.190000", "075939.350000", "075940.510000", "075941.670000", "075942.830000", "075943.990000", "075945.150000", "075946.310000", "075947.470000", "075948.630000", "075949.790000", "075950.950000", "075952.110000", "075953.270000", "075954.430000", "075955.590000", "075956.750000", "075957.910000", "075959.070000", "080000.230000", "080001.390000", "080002.550000", "080003.710000", "080004.870000", "080006.030000", "080007.190000", "080008.350000", "080009.510000", "080010.670000", "080011.830000", "080012.990000", "080014.150000", "080015.310000", "080016.470000", "080017.630000", "080018.790000", "080019.950000", "080021.110000", "080022.270000", "080023.432500", "080024.592500", "080025.752500", "080026.912500", "080028.072500", "080029.232500", "080030.392500", "080031.552500", "080032.712500", "080033.872500", "080035.032500", "080036.192500", "080037.352500", "080038.512500", "080039.672500", "080040.832500", "080041.992500", "080043.152500", "080044.312500", "080045.472500", "080046.632500", "080047.792500", "080048.952500", "080050.112500", "080051.272500", "080052.432500", "080053.592500", "080054.752500", "080055.912500", "080057.072500", "080058.232500", "080059.392500", "080100.552500", "080101.712500", "080102.872500", "080104.032500", "080105.192500", "080106.352500", "080107.512500", "080108.672500", "080109.832500", "080110.992500", "080112.152500", "080113.312500", "080114.472500", "080115.632500", "080116.792500", "080117.952500", "080119.112500", "080120.272500", "080121.432500", "080122.592500", "080123.752500", "080124.912500", "080126.072500", "080127.232500", "080128.392500", "080129.552500", "080130.712500", "080131.872500", "080133.032500", "080134.192500", "080135.352500", "080136.512500", "080137.672500", "080138.832500", "080139.992500", "080141.152500", "080142.312500", "080143.472500", "080144.632500", "080145.792500", "080146.952500", "080148.112500", "080149.272500", "080150.432500", "080151.592500", "080152.752500", "080153.912500", "080155.072500", "080156.232500", "080157.392500", "080158.552500", "080159.712500", "080200.872500", "080202.032500", "080203.192500", "080204.352500", "080205.512500", "080206.672500", "080207.832500", "080208.992500", "080210.152500", "080211.312500", "080212.472500", "080213.632500", "080214.792500", "080215.952500", "080217.112500", "080218.272500", "080219.432500", "080220.592500", "080221.752500", "080222.912500", "080224.072500", "080225.232500", "080226.392500", "080227.552500", "080228.712500", "080229.872500", "080231.032500", "080232.192500", "080233.352500", "080234.512500", "080235.672500", "080236.832500", "080237.992500", "080239.152500", "080240.312500", "080241.472500", "080242.632500", "080243.792500", "080244.952500", "080246.112500", "080247.272500", "080248.432500", "080249.592500", "080250.752500", "080251.912500", "080253.072500", "080254.232500", "080255.392500", "080256.552500", "080257.712500", "080258.872500", "080300.032500", "080301.192500", "080302.352500", "080303.512500", "080304.672500", "080305.832500", "080306.992500", "080308.152500", "080309.312500", "080310.472500", "080311.632500", "080312.792500", "080313.952500", "080315.112500", "080316.272500", "080317.432500", "080318.592500", "080319.752500", "080320.912500", "080322.072500", "080323.232500", "080324.392500", "080325.552500", "080326.712500", "080327.872500", "080329.032500", "080330.192500", "080331.352500", "080332.512500", "080333.672500", "080334.832500", "080335.992500", "080337.152500", "080338.312500", "080339.472500", "080340.632500", "080341.792500", "080342.952500", "080344.112500", "080345.272500", "080346.432500", "080347.592500", "080348.752500", "080349.912500", "080351.072500", "080352.232500", "080353.392500", "080354.552500", "080355.712500", "080356.872500", "080358.032500", "080359.192500", "080400.352500", "080401.512500", "080402.672500", "080403.832500", "080404.992500", "080406.152500", "080407.312500", "080408.472500", "080409.632500", "080410.792500", "080411.952500", "080413.112500", "080414.272500", "080415.432500", "080416.592500", "080417.752500", "080418.912500", "080420.072500", "080421.232500", "080422.392500", "080423.552500", "080424.712500", "080425.872500", "080427.032500", "080428.192500", "080429.352500", "080430.512500", "080431.672500", "080432.832500", "080433.992500", "080435.152500", "080436.312500", "080437.472500", "080438.632500", "080439.792500", "080440.952500", "080442.112500", "080443.272500", "080444.432500", "080445.592500", "080446.752500", "080447.912500", "080449.072500", "080450.232500", "080451.392500", "080452.552500", "080453.712500", "080454.872500", "080456.032500", "080457.192500", "080458.352500", "080459.512500", "080500.672500", "080501.832500"], "ContentTime": ["075512.359000", "075521.328000", "075521.328000", "075521.328000", "075521.343000", "075521.343000", "075521.343000", "075521.359000", "075526.328000", "075526.343000", "075526.343000", "075526.343000", "075531.328000", "075531.328000", "075531.328000", "075536.328000", "075536.328000", "075536.343000", "075536.343000", "075541.328000", "075541.343000", "075541.343000", "075541.343000", "075546.328000", "075546.328000", "075546.343000", "075546.343000", "075551.328000", "075551.343000", "075551.343000", "075556.328000", "075556.343000", "075556.343000", "075556.343000", "075601.328000", "075601.328000", "075601.328000", "075601.343000", "075606.328000", "075606.328000", "075606.343000", "075606.343000", "075611.328000", "075611.328000", "075611.328000", "075616.328000", "075616.328000", "075616.328000", "075616.343000", "075621.328000", "075621.328000", "075621.328000", "075621.343000", "075626.328000", "075626.328000", "075626.328000", "075626.343000", "075631.328000", "075631.328000", "075631.375000", "075636.328000", "075636.328000", "075636.328000", "075636.343000", "075636.343000", "075641.328000", "075641.343000", "075641.343000", "075646.328000", "075646.328000", "075646.343000", "075646.343000", "075651.328000", "075651.328000", "075651.328000", "075651.343000", "075656.328000", "075656.328000", "075656.328000", "075701.328000", "075701.328000", "075701.328000", "075701.343000", "075706.328000", "075706.328000", "075706.328000", "075706.343000", "075711.328000", "075711.328000", "075711.328000", "075711.343000", "075716.328000", "075716.328000", "075716.328000", "075716.343000", "075721.328000", "075721.343000", "075721.343000", "075726.328000", "075726.328000", "075726.328000", "075726.343000", "075731.328000", "075731.328000", "075731.328000", "075731.343000", "075736.328000", "075736.328000", "075736.328000", "075736.343000", "075741.328000", "075741.343000", "075741.343000", "075746.328000", "075746.343000", "075746.343000", "075746.343000", "075746.343000", "075751.328000", "075751.343000", "075751.343000", "075756.328000", "075756.328000", "075756.343000", "075756.343000", "075801.328000", "075801.328000", "075801.343000", "075801.343000", "075806.328000", "075806.343000", "075806.343000", "075811.328000", "075811.328000", "075811.343000", "075811.359000", "075811.359000", "075816.328000", "075816.328000", "075816.328000", "075821.328000", "075821.343000", "075821.343000", "075821.343000", "075826.328000", "075826.328000", "075826.328000", "075826.343000", "075831.328000", "075831.343000", "075831.343000", "075836.328000", "075836.328000", "075836.328000", "075836.343000", "075841.328000", "075841.328000", "075841.343000", "075846.328000", "075846.328000", "075846.328000", "075846.343000", "075851.328000", "075851.359000", "075851.359000", "075856.328000", "075856.328000", "075856.343000", "075856.343000", "075901.328000", "075901.328000", "075901.343000", "075901.343000", "075906.328000", "075906.328000", "075906.343000", "075906.343000", "075911.328000", "075911.328000", "075911.343000", "075911.343000", "075916.328000", "075916.328000", "075916.328000", "075916.343000", "075921.328000", "075921.328000", "075921.328000", "075926.328000", "075926.328000", "075926.328000", "075926.343000", "075931.328000", "075931.328000", "075931.328000", "075931.343000", "075936.343000", "075936.343000", "075936.343000", "075936.343000", "075941.328000", "075941.328000", "075941.375000", "075946.328000", "075946.328000", "075946.328000", "075946.343000", "075951.328000", "075951.328000", "075951.328000", "075951.343000", "075956.328000", "075956.328000", "075956.343000", "075956.343000", "080001.328000", "080001.328000", "080001.328000", "080001.343000", "080006.328000", "080006.343000", "080006.343000", "080011.328000", "080011.328000", "080011.343000", "080011.343000", "080016.328000", "080016.328000", "080016.328000", "080021.328000", "080021.359000", "080021.375000", "080021.375000", "080026.328000", "080026.328000", "080026.328000", "080026.343000", "080031.328000", "080031.328000", "080031.375000", "080036.328000", "080036.328000", "080036.328000", "080036.343000", "080041.328000", "080041.328000", "080041.328000", "080041.343000", "080046.328000", "080046.328000", "080046.343000", "080051.328000", "080051.343000", "080051.343000", "080051.343000", "080056.328000", "080056.328000", "080056.328000", "080056.343000", "080101.328000", "080101.328000", "080101.328000", "080106.328000", "080106.375000", "080106.375000", "080106.375000", "080111.328000", "080111.328000", "080111.328000", "080116.328000", "080116.328000", "080116.328000", "080116.343000", "080121.328000", "080121.328000", "080121.328000", "080121.343000", "080126.328000", "080126.328000", "080126.328000", "080126.343000", "080131.328000", "080131.328000", "080131.328000", "080131.343000", "080136.328000", "080136.328000", "080136.343000", "080141.328000", "080141.328000", "080141.343000", "080141.343000", "080146.328000", "080146.328000", "080146.328000", "080146.343000", "080151.328000", "080151.328000", "080151.343000", "080156.328000", "080156.328000", "080156.328000", "080156.343000", "080156.343000", "080201.328000", "080201.343000", "080201.343000", "080206.328000", "080206.328000", "080206.375000", "080206.375000", "080211.328000", "080211.328000", "080211.343000", "080211.343000", "080216.328000", "080216.328000", "080216.328000", "080216.343000", "080221.328000", "080221.328000", "080221.328000", "080226.328000", "080226.328000", "080226.328000", "080226.343000", "080226.343000", "080231.328000", "080231.328000", "080231.328000", "080236.328000", "080236.343000", "080236.343000", "080236.343000", "080241.328000", "080241.343000", "080241.343000", "080241.359000", "080246.328000", "080246.343000", "080246.343000", "080246.343000", "080251.328000", "080251.375000", "080251.375000", "080251.375000", "080256.328000", "080256.328000", "080256.328000", "080301.328000", "080301.343000", "080301.343000", "080301.343000", "080306.328000", "080306.328000", "080306.328000", "080306.343000", "080311.328000", "080311.375000", "080311.375000", "080316.328000", "080316.328000", "080316.343000", "080316.343000", "080321.328000", "080321.328000", "080321.343000", "080321.343000", "080326.328000", "080326.328000", "080326.343000", "080326.343000", "080331.328000", "080331.328000", "080331.328000", "080336.328000", "080336.375000", "080336.375000", "080336.375000", "080341.328000", "080341.343000", "080341.343000", "080341.343000", "080346.328000", "080346.359000", "080346.375000", "080346.375000", "080351.328000", "080351.328000", "080351.328000", "080351.343000", "080356.328000", "080356.328000", "080356.328000", "080401.328000", "080401.343000", "080401.343000", "080401.343000", "080406.328000", "080406.328000", "080406.328000", "080406.343000", "080411.328000", "080411.328000", "080411.328000", "080411.343000", "080416.328000", "080416.328000", "080416.343000", "080421.328000", "080421.328000", "080421.328000", "080421.343000", "080426.328000", "080426.328000", "080426.343000", "080426.343000", "080431.328000", "080431.328000", "080431.328000", "080431.359000", "080436.328000", "080436.343000", "080436.343000", "080441.328000", "080441.328000", "080441.343000", "080441.343000", "080446.328000", "080446.328000", "080446.343000", "080446.343000", "080451.328000", "080451.328000", "080451.328000", "080456.328000", "080456.359000", "080456.375000", "080456.375000", "080501.328000", "080501.343000", "080501.343000", "080501.343000", "080506.328000", "080506.328000", "080506.343000", "080506.343000", "080511.328000", "080511.328000", "080511.343000", "080511.343000", "080516.328000", "080516.328000", "080516.328000", "080521.328000", "080521.359000", "080521.375000", "080521.375000", "080526.328000", "080526.328000", "080526.343000", "080526.343000", "080531.328000", "080531.343000", "080531.343000", "080531.359000", "080536.328000", "080536.328000", "080536.343000", "080536.343000", "080541.328000", "080541.343000", "080541.343000", "080541.343000", "080546.328000", "080546.328000", "080546.343000", "080546.343000", "080551.328000", "080551.328000", "080551.343000", "080551.343000", "080556.328000", "080556.328000", "080556.328000", "080556.343000", "080556.343000", "080601.328000", "080601.328000", "080601.328000", "080606.328000", "080606.328000", "080606.328000", "080606.343000", "080606.343000", "080611.328000", "080611.328000", "080611.328000", "080611.343000", "080616.328000", "080616.328000", "080616.328000", "080616.343000", "080621.328000", "080621.328000", "080621.328000", "080621.343000", "080626.328000", "080626.328000", "080626.328000", "080626.343000", "080631.328000", "080631.328000", "080631.328000", "080631.343000", "080634.265000", "080634.281000", "080634.281000"], "InstanceCreationTime": ["075512.359000", "075521.328000", "075521.328000", "075521.328000", "075521.343000", "075521.343000", "075521.343000", "075521.359000", "075526.328000", "075526.343000", "075526.343000", "075526.343000", "075531.328000", "075531.328000", "075531.328000", "075536.328000", "075536.328000", "075536.343000", "075536.343000", "075541.328000", "075541.343000", "075541.343000", "075541.343000", "075546.328000", "075546.328000", "075546.343000", "075546.343000", "075551.328000", "075551.343000", "075551.343000", "075556.328000", "075556.343000", "075556.343000", "075556.343000", "075601.328000", "075601.328000", "075601.328000", "075601.343000", "075606.328000", "075606.328000", "075606.343000", "075606.343000", "075611.328000", "075611.328000", "075611.328000", "075616.328000", "075616.328000", "075616.328000", "075616.343000", "075621.328000", "075621.328000", "075621.328000", "075621.343000", "075626.328000", "075626.328000", "075626.328000", "075626.343000", "075631.328000", "075631.328000", "075631.375000", "075636.328000", "075636.328000", "075636.328000", "075636.343000", "075636.343000", "075641.328000", "075641.343000", "075641.343000", "075646.328000", "075646.328000", "075646.343000", "075646.343000", "075651.328000", "075651.328000", "075651.328000", "075651.343000", "075656.328000", "075656.328000", "075656.328000", "075701.328000", "075701.328000", "075701.328000", "075701.343000", "075706.328000", "075706.328000", "075706.328000", "075706.343000", "075711.328000", "075711.328000", "075711.328000", "075711.343000", "075716.328000", "075716.328000", "075716.328000", "075716.343000", "075721.328000", "075721.343000", "075721.343000", "075726.328000", "075726.328000", "075726.328000", "075726.343000", "075731.328000", "075731.328000", "075731.328000", "075731.343000", "075736.328000", "075736.328000", "075736.328000", "075736.343000", "075741.328000", "075741.343000", "075741.343000", "075746.328000", "075746.343000", "075746.343000", "075746.343000", "075746.343000", "075751.328000", "075751.343000", "075751.343000", "075756.328000", "075756.328000", "075756.343000", "075756.343000", "075801.328000", "075801.328000", "075801.343000", "075801.343000", "075806.328000", "075806.343000", "075806.343000", "075811.328000", "075811.328000", "075811.343000", "075811.359000", "075811.359000", "075816.328000", "075816.328000", "075816.328000", "075821.328000", "075821.343000", "075821.343000", "075821.343000", "075826.328000", "075826.328000", "075826.328000", "075826.343000", "075831.328000", "075831.343000", "075831.343000", "075836.328000", "075836.328000", "075836.328000", "075836.343000", "075841.328000", "075841.328000", "075841.343000", "075846.328000", "075846.328000", "075846.328000", "075846.343000", "075851.328000", "075851.359000", "075851.359000", "075856.328000", "075856.328000", "075856.343000", "075856.343000", "075901.328000", "075901.328000", "075901.343000", "075901.343000", "075906.328000", "075906.328000", "075906.343000", "075906.343000", "075911.328000", "075911.328000", "075911.343000", "075911.343000", "075916.328000", "075916.328000", "075916.328000", "075916.343000", "075921.328000", "075921.328000", "075921.328000", "075926.328000", "075926.328000", "075926.328000", "075926.343000", "075931.328000", "075931.328000", "075931.328000", "075931.343000", "075936.343000", "075936.343000", "075936.343000", "075936.343000", "075941.328000", "075941.328000", "075941.375000", "075946.328000", "075946.328000", "075946.328000", "075946.343000", "075951.328000", "075951.328000", "075951.328000", "075951.343000", "075956.328000", "075956.328000", "075956.343000", "075956.343000", "080001.328000", "080001.328000", "080001.328000", "080001.343000", "080006.328000", "080006.343000", "080006.343000", "080011.328000", "080011.328000", "080011.343000", "080011.343000", "080016.328000", "080016.328000", "080016.328000", "080021.328000", "080021.359000", "080021.375000", "080021.375000", "080026.328000", "080026.328000", "080026.328000", "080026.343000", "080031.328000", "080031.328000", "080031.375000", "080036.328000", "080036.328000", "080036.328000", "080036.343000", "080041.328000", "080041.328000", "080041.328000", "080041.343000", "080046.328000", "080046.328000", "080046.343000", "080051.328000", "080051.343000", "080051.343000", "080051.343000", "080056.328000", "080056.328000", "080056.328000", "080056.343000", "080101.328000", "080101.328000", "080101.328000", "080106.328000", "080106.375000", "080106.375000", "080106.375000", "080111.328000", "080111.328000", "080111.328000", "080116.328000", "080116.328000", "080116.328000", "080116.343000", "080121.328000", "080121.328000", "080121.328000", "080121.343000", "080126.328000", "080126.328000", "080126.328000", "080126.343000", "080131.328000"