{
    "AcquisitionMatrixPE": 96,
    "AcquisitionNumber": 1,
    "AcquisitionTime": "07:48:54.625000",
    "BandwidthPerPixelPhaseEncode": 33.602,
    "BaseResolution": 96,
    "BodyPartExamined": "BRAIN",
    "ConsistencyInfo": "N4_VD13A_LATEST_20120616",
    "ConversionSoftware": "dcm2niix",
    "ConversionSoftwareVersion": "v1.0.20210317",
    "DerivedVendorReportedEchoSpacing": 0.000620003,
    "DeviceSerialNumber": "45239",
    "DwellTime": 2.6e-06,
    "EchoTime": 0.03,
    "EchoTrainLength": 47,
    "EffectiveEchoSpacing": 0.000310001,
    "FlipAngle": 63,
    "ImageComments": "Unaliased MB4/PE3",
    "ImageOrientationPatientDICOM": [
        0.998698,
        -0.0449112,
        0.0241822,
        0.0510078,
        0.879331,
        -0.473471
    ],
    "ImageType": [
        "ORIGINAL",
        "PRIMARY",
        "M",
        "ND",
        "NORM",
        "MOSAIC"
    ],
    "ImagingFrequency": 123.191,
    "InPlanePhaseEncodingDirectionDICOM": "COL",
    "InstitutionAddress": "E 24th St. 100,Austin,Southmiddle,US,78712",
    "InstitutionName": "Univ of Texas at Austin",
    "InstitutionalDepartmentName": "IRC",
    "MRAcquisitionType": "2D",
    "MagneticFieldStrength": 3,
    "Manufacturer": "Siemens",
    "ManufacturersModelName": "Skyra",
    "Modality": "MR",
    "MultibandAccelerationFactor": 4,
    "ParallelReductionFactorInPlane": 2,
    "PartialFourier": 1,
    "PatientPosition": "HFS",
    "PercentPhaseFOV": 100,
    "PercentSampling": 100,
    "PhaseEncodingDirection": "j-",
    "PhaseEncodingSteps": 95,
    "PhaseResolution": 1,
    "PixelBandwidth": 2005,
    "ProcedureStepDescription": "Poldrack2^self-scanning",
    "ProtocolName": "superloc",
    "PulseSequenceDetails": "%CustomerSeq%\\cmrr_mbep2d_bold",
    "ReceiveCoilActiveElements": "HEA;HEP",
    "ReceiveCoilName": "Head_32",
    "ReconMatrixPE": 96,
    "RefLinesPE": 48,
    "RepetitionTime": 1.16,
    "SAR": 0.122761,
    "ScanOptions": "FS",
    "ScanningSequence": "EP",
    "SequenceName": "epfid2d1_96",
    "SequenceVariant": "SK",
    "SeriesDescription": "superloc",
    "SeriesNumber": 8,
    "ShimSetting": [
        -2964,
        8338,
        -15467,
        -829,
        201,
        -624,
        35,
        164
    ],
    "SliceThickness": 2,
    "SliceTiming": [
        0,
        0.4975,
        0.9975,
        0.355,
        0.855,
        0.2125,
        0.7125,
        0.07,
        0.57,
        1.0675,
        0.4275,
        0.925,
        0.285,
        0.7825,
        0.1425,
        0.64,
        0,
        0.4975,
        0.9975,
        0.355,
        0.855,
        0.2125,
        0.7125,
        0.07,
        0.57,
        1.0675,
        0.4275,
        0.925,
        0.285,
        0.7825,
        0.1425,
        0.64,
        0,
        0.4975,
        0.9975,
        0.355,
        0.855,
        0.2125,
        0.7125,
        0.07,
        0.57,
        1.0675,
        0.4275,
        0.925,
        0.285,
        0.7825,
        0.1425,
        0.64,
        0,
        0.4975,
        0.9975,
        0.355,
        0.855,
        0.2125,
        0.7125,
        0.07,
        0.57,
        1.0675,
        0.4275,
        0.925,
        0.285,
        0.7825,
        0.1425,
        0.64
    ],
    "SoftwareVersions": "syngo MR D13",
    "SpacingBetweenSlices": 2.4,
    "StationName": "AWP45239",
    "TaskName": "Sentence processing task",
    "TotalReadoutTime": 0.0294501,
    "TxRefAmp": 343.124,
    "WipMemBlock": "376f1960-e54b-4600-966c-96478b468c9b||Sequence: vd13a/R010 r/fd129fc; Dec 13 2013 16:14:27 by eja",
    "dcmmeta_affine": [
        [
            -2.392714500427246,
            0.12220615893602371,
            -9.271517775744087e-09,
            107.593505859375
        ],
        [
            0.10759976506233215,
            2.1067309379577637,
            -1.1378117799758911,
            -95.31666564941406
        ],
        [
            0.05793648958206177,
            1.1343576908111572,
            2.1131458282470703,
            -76.1186294555664
        ],
        [
            0.0,
            0.0,
            0.0,
            1.0
        ]
    ],
    "dcmmeta_reorient_transform": [
        [
            0.0,
            -1.0,
            0.0,
            95.0
        ],
        [
            1.0,
            0.0,
            0.0,
            0.0
        ],
        [
            0.0,
            0.0,
            1.0,
            0.0
        ],
        [
            0.0,
            0.0,
            0.0,
            1.0
        ]
    ],
    "dcmmeta_shape": [
        96,
        96,
        64,
        326
    ],
    "dcmmeta_slice_dim": 2,
    "dcmmeta_version": 0.6,
    "global": {
        "const": {
            "AcquisitionMatrix": [
                96,
                0,
                0,
                96
            ],
            "AngioFlag": "N",
            "BitsAllocated": 16,
            "BitsStored": 16,
            "BodyPartExamined": "BRAIN",
            "Columns": 768,
            "DeidentificationMethodCodeSequence": [
                {
                    "CodeMeaning": "XNAT Edit Script",
                    "CodeValue": "93",
                    "CodingSchemeDesignator": "XNAT",
                    "CodingSchemeVersion": "0.1"
                }
            ],
            "EchoNumbers": 1,
            "EchoTime": 30.0,
            "EchoTrainLength": 47,
            "FlipAngle": 63.0,
            "HighBit": 15,
            "ImageOrientationPatient": [
                0.9986982553822,
                -0.0449112063593,
                0.02418218848471,
                0.05100779054772,
                0.87933119872615,
                -0.4734710637941
            ],
            "ImagePositionPatient": [
                -964.21642971617,
                -776.53084562427,
                393.32288818532
            ],
            "ImageType": [
                "ORIGINAL",
                "PRIMARY",
                "M",
                "ND",
                "NORM",
                "MOSAIC"
            ],
            "ImagedNucleus": "1H",
            "ImagingFrequency": 123.191104,
            "InPlanePhaseEncodingDirection": "COL",
            "MRAcquisitionType": "2D",
            "MagneticFieldStrength": 3.0,
            "Manufacturer": "SIEMENS",
            "ManufacturerModelName": "Skyra",
            "Modality": "MR",
            "NumberOfAverages": 1.0,
            "NumberOfPhaseEncodingSteps": 95,
            "PercentPhaseFieldOfView": 100.0,
            "PercentSampling": 100.0,
            "PerformedProcedureStepStartTime": "072514.268000",
            "PhotometricInterpretation": "MONOCHROME2",
            "PixelBandwidth": 2005.0,
            "PixelRepresentation": 0,
            "PixelSpacing": [
                2.3958332538605,
                2.3958332538605
            ],
            "ProtocolName": "superloc",
            "RepetitionTime": 1160.0,
            "Rows": 768,
            "SAR": 0.12276137876284,
            "SamplesPerPixel": 1,
            "ScanOptions": "FS",
            "ScanningSequence": "EP",
            "SequenceName": "epfid2d1_96",
            "SequenceVariant": "SK",
            "SeriesDescription": "superloc",
            "SeriesNumber": 8,
            "SeriesTime": "074940.833000",
            "SliceLocation": -21.832222318668,
            "SliceThickness": 2.0,
            "SmallestImagePixelValue": 0,
            "SoftwareVersions": "syngo MR D13",
            "SpacingBetweenSlices": 2.4000000681755,
            "SpecificCharacterSet": "ISO_IR 100",
            "StudyID": "1",
            "StudyTime": "072514.190000",
            "TransmitCoilName": "Body",
            "VariableFlipAngleFlag": "N",
            "WindowCenterWidthExplanation": "Algo1",
            "dBdt": 0.0
        },
        "slices": {}
    },
    "time": {
        "samples": {
            "AcquisitionNumber": [
                1,
                2,
                3,
                4,
                5,
                6,
                7,
                8,
                9,
                10,
                11,
                12,
                13,
                14,
                15,
                16,
                17,
                18,
                19,
                20,
                21,
                22,
                23,
                24,
                25,
                26,
                27,
                28,
                29,
                30,
                31,
                32,
                33,
                34,
                35,
                36,
                37,
                38,
                39,
                40,
                41,
                42,
                43,
                44,
                45,
                46,
                47,
                48,
                49,
                50,
                51,
                52,
                53,
                54,
                55,
                56,
                57,
                58,
                59,
                60,
                61,
                62,
                63,
                64,
                65,
                66,
                67,
                68,
                69,
                70,
                71,
                72,
                73,
                74,
                75,
                76,
                77,
                78,
                79,
                80,
                81,
                82,
                83,
                84,
                85,
                86,
                87,
                88,
                89,
                90,
                91,
                92,
                93,
                94,
                95,
                96,
                97,
                98,
                99,
                100,
                101,
                102,
                103,
                104,
                105,
                106,
                107,
                108,
                109,
                110,
                111,
                112,
                113,
                114,
                115,
                116,
                117,
                118,
                119,
                120,
                121,
                122,
                123,
                124,
                125,
                126,
                127,
                128,
                129,
                130,
                131,
                132,
                133,
                134,
                135,
                136,
                137,
                138,
                139,
                140,
                141,
                142,
                143,
                144,
                145,
                146,
                147,
                148,
                149,
                150,
                151,
                152,
                153,
                154,
                155,
                156,
                157,
                158,
                159,
                160,
                161,
                162,
                163,
                164,
                165,
                166,
                167,
                168,
                169,
                170,
                171,
                172,
                173,
                174,
                175,
                176,
                177,
                178,
                179,
                180,
                181,
                182,
                183,
                184,
                185,
                186,
                187,
                188,
                189,
                190,
                191,
                192,
                193,
                194,
                195,
                196,
                197,
                198,
                199,
                200,
                201,
                202,
                203,
                204,
                205,
                206,
                207,
                208,
                209,
                210,
                211,
                212,
                213,
                214,
                215,
                216,
                217,
                218,
                219,
                220,
                221,
                222,
                223,
                224,
                225,
                226,
                227,
                228,
                229,
                230,
                231,
                232,
                233,
                234,
                235,
                236,
                237,
                238,
                239,
                240,
                241,
                242,
                243,
                244,
                245,
                246,
                247,
                248,
                249,
                250,
                251,
                252,
                253,
                254,
                255,
                256,
                257,
                258,
                259,
                260,
                261,
                262,
                263,
                264,
                265,
                266,
                267,
                268,
                269,
                270,
                271,
                272,
                273,
                274,
                275,
                276,
                277,
                278,
                279,
                280,
                281,
                282,
                283,
                284,
                285,
                286,
                287,
                288,
                289,
                290,
                291,
                292,
                293,
                294,
                295,
                296,
                297,
                298,
                299,
                300,
                301,
                302,
                303,
                304,
                305,
                306,
                307,
                308,
                309,
                310,
                311,
                312,
                313,
                314,
                315,
                316,
                317,
                318,
                319,
                320,
                321,
                322,
                323,
                324,
                325,
                326
            ],
            "AcquisitionTime": [
                "074854.625000",
                "074901.565000",
                "074902.725000",
                "074903.885000",
                "074905.045000",
                "074906.205000",
                "074907.365000",
                "074908.525000",
                "074909.685000",
                "074910.845000",
                "074912.005000",
                "074913.165000",
                "074914.325000",
                "074915.485000",
                "074916.645000",
                "074917.805000",
                "074918.965000",
                "074920.125000",
                "074921.285000",
                "074922.445000",
                "074923.605000",
                "074924.765000",
                "074925.925000",
                "074927.085000",
                "074928.245000",
                "074929.405000",
                "074930.565000",
                "074931.725000",
                "074932.885000",
                "074934.045000",
                "074935.205000",
                "074936.365000",
                "074937.525000",
                "074938.685000",
                "074939.845000",
                "074941.005000",
                "074942.165000",
                "074943.325000",
                "074944.485000",
                "074945.645000",
                "074946.805000",
                "074947.965000",
                "074949.125000",
                "074950.285000",
                "074951.445000",
                "074952.605000",
                "074953.765000",
                "074954.925000",
                "074956.085000",
                "074957.245000",
                "074958.405000",
                "074959.565000",
                "075000.725000",
                "075001.885000",
                "075003.045000",
                "075004.205000",
                "075005.365000",
                "075006.525000",
                "075007.685000",
                "075008.845000",
                "075010.005000",
                "075011.165000",
                "075012.325000",
                "075013.485000",
                "075014.645000",
                "075015.805000",
                "075016.965000",
                "075018.125000",
                "075019.285000",
                "075020.445000",
                "075021.605000",
                "075022.765000",
                "075023.925000",
                "075025.085000",
                "075026.245000",
                "075027.405000",
                "075028.565000",
                "075029.725000",
                "075030.885000",
                "075032.045000",
                "075033.205000",
                "075034.365000",
                "075035.525000",
                "075036.685000",
                "075037.845000",
                "075039.005000",
                "075040.165000",
                "075041.325000",
                "075042.485000",
                "075043.645000",
                "075044.805000",
                "075045.965000",
                "075047.125000",
                "075048.285000",
                "075049.445000",
                "075050.605000",
                "075051.765000",
                "075052.925000",
                "075054.085000",
                "075055.245000",
                "075056.405000",
                "075057.565000",
                "075058.725000",
                "075059.885000",
                "075101.045000",
                "075102.205000",
                "075103.365000",
                "075104.525000",
                "075105.685000",
                "075106.845000",
                "075108.005000",
                "075109.165000",
                "075110.325000",
                "075111.485000",
                "075112.645000",
                "075113.805000",
                "075114.965000",
                "075116.125000",
                "075117.285000",
                "075118.445000",
                "075119.605000",
                "075120.765000",
                "075121.925000",
                "075123.085000",
                "075124.245000",
                "075125.405000",
                "075126.565000",
                "075127.725000",
                "075128.885000",
                "075130.047500",
                "075131.207500",
                "075132.367500",
                "075133.527500",
                "075134.687500",
                "075135.847500",
                "075137.007500",
                "075138.167500",
                "075139.327500",
                "075140.487500",
                "075141.647500",
                "075142.807500",
                "075143.967500",
                "075145.127500",
                "075146.287500",
                "075147.447500",
                "075148.607500",
                "075149.767500",
                "075150.927500",
                "075152.087500",
                "075153.247500",
                "075154.407500",
                "075155.567500",
                "075156.727500",
                "075157.887500",
                "075159.047500",
                "075200.207500",
                "075201.367500",
                "075202.527500",
                "075203.687500",
                "075204.847500",
                "075206.007500",
                "075207.167500",
                "075208.327500",
                "075209.487500",
                "075210.647500",
                "075211.807500",
                "075212.967500",
                "075214.127500",
                "075215.287500",
                "075216.447500",
                "075217.607500",
                "075218.767500",
                "075219.927500",
                "075221.087500",
                "075222.247500",
                "075223.407500",
                "075224.567500",
                "075225.727500",
                "075226.887500",
                "075228.047500",
                "075229.207500",
                "075230.367500",
                "075231.527500",
                "075232.687500",
                "075233.847500",
                "075235.007500",
                "075236.167500",
                "075237.327500",
                "075238.487500",
                "075239.647500",
                "075240.807500",
                "075241.967500",
                "075243.127500",
                "075244.287500",
                "075245.447500",
                "075246.607500",
                "075247.767500",
                "075248.927500",
                "075250.087500",
                "075251.247500",
                "075252.407500",
                "075253.567500",
                "075254.727500",
                "075255.887500",
                "075257.047500",
                "075258.207500",
                "075259.367500",
                "075300.527500",
                "075301.687500",
                "075302.847500",
                "075304.007500",
                "075305.167500",
                "075306.327500",
                "075307.487500",
                "075308.647500",
                "075309.807500",
                "075310.967500",
                "075312.127500",
                "075313.287500",
                "075314.447500",
                "075315.607500",
                "075316.767500",
                "075317.927500",
                "075319.087500",
                "075320.247500",
                "075321.407500",
                "075322.567500",
                "075323.727500",
                "075324.887500",
                "075326.047500",
                "075327.207500",
                "075328.367500",
                "075329.527500",
                "075330.687500",
                "075331.847500",
                "075333.007500",
                "075334.167500",
                "075335.327500",
                "075336.487500",
                "075337.647500",
                "075338.807500",
                "075339.967500",
                "075341.127500",
                "075342.287500",
                "075343.447500",
                "075344.607500",
                "075345.767500",
                "075346.927500",
                "075348.087500",
                "075349.247500",
                "075350.407500",
                "075351.567500",
                "075352.727500",
                "075353.887500",
                "075355.047500",
                "075356.207500",
                "075357.367500",
                "075358.527500",
                "075359.687500",
                "075400.847500",
                "075402.007500",
                "075403.167500",
                "075404.327500",
                "075405.487500",
                "075406.647500",
                "075407.807500",
                "075408.967500",
                "075410.127500",
                "075411.287500",
                "075412.447500",
                "075413.607500",
                "075414.767500",
                "075415.927500",
                "075417.087500",
                "075418.247500",
                "075419.407500",
                "075420.567500",
                "075421.727500",
                "075422.887500",
                "075424.047500",
                "075425.207500",
                "075426.367500",
                "075427.527500",
                "075428.687500",
                "075429.847500",
                "075431.007500",
                "075432.167500",
                "075433.327500",
                "075434.487500",
                "075435.647500",
                "075436.807500",
                "075437.967500",
                "075439.127500",
                "075440.287500",
                "075441.447500",
                "075442.607500",
                "075443.767500",
                "075444.927500",
                "075446.087500",
                "075447.247500",
                "075448.407500",
                "075449.567500",
                "075450.727500",
                "075451.887500",
                "075453.047500",
                "075454.207500",
                "075455.367500",
                "075456.527500",
                "075457.687500",
                "075458.847500",
                "075500.007500",
                "075501.167500",
                "075502.327500",
                "075503.487500",
                "075504.647500",
                "075505.807500",
                "075506.967500",
                "075508.127500",
                "075509.287500",
                "075510.447500",
                "075511.607500",
                "075512.767500",
                "075513.927500",
                "075515.087500",
                "075516.247500",
                "075517.407500"
            ],
            "ContentTime": [
                "074940.837000",
                "074940.842000",
                "074940.846000",
                "074940.851000",
                "074940.855000",
                "074940.859000",
                "074940.862000",
                "074940.871000",
                "074940.877000",
                "074940.881000",
                "074940.885000",
                "074940.889000",
                "074940.893000",
                "074940.896000",
                "074940.900000",
                "074940.904000",
                "074940.908000",
                "074940.912000",
                "074940.916000",
                "074940.920000",
                "074940.924000",
                "074940.928000",
                "074940.932000",
                "074940.936000",
                "074940.940000",
                "074940.944000",
                "074940.948000",
                "074940.957000",
                "074940.960000",
                "074940.964000",
                "075000.790000",
                "075000.794000",
                "075000.798000",
                "075000.802000",
                "075000.811000",
                "075000.815000",
                "075000.819000",
                "075000.822000",
                "075000.827000",
                "075000.830000",
                "075000.834000",
                "075000.837000",
                "075000.842000",
                "075000.846000",
                "075000.850000",
                "075000.854000",
                "075000.859000",
                "075000.862000",
                "075000.866000",
                "075000.870000",
                "075040.789000",
                "075040.794000",
                "075040.798000",
                "075040.802000",
                "075040.805000",
                "075040.810000",
                "075040.814000",
                "075040.817000",
                "075040.821000",
                "075040.825000",
                "075040.829000",
                "075040.833000",
                "075040.837000",
                "075040.841000",
                "075040.845000",
                "075040.849000",
                "075040.853000",
                "075040.857000",
                "075040.861000",
                "075040.865000",
                "075040.868000",
                "075040.872000",
                "075040.876000",
                "075040.880000",
                "075040.884000",
                "075040.888000",
                "075040.892000",
                "075040.895000",
                "075040.899000",
                "075040.903000",
                "075040.907000",
                "075040.911000",
                "075040.919000",
                "075040.922000",
                "075040.926000",
                "075120.790000",
                "075120.795000",
                "075120.799000",
                "075120.803000",
                "075120.807000",
                "075120.810000",
                "075120.814000",
                "075120.818000",
                "075120.822000",
                "075120.825000",
                "075120.829000",
                "075120.833000",
                "075120.836000",
                "075120.840000",
                "075120.844000",
                "075120.848000",
                "075120.852000",
                "075120.856000",
                "075120.861000",
                "075120.864000",
                "075120.868000",
                "075120.872000",
                "075120.876000",
                "075120.880000",
                "075120.884000",
                "075120.888000",
                "075120.903000",
                "075120.907000",
                "075120.911000",
                "075120.915000",
                "075120.919000",
                "075120.923000",
                "075120.927000",
                "075120.931000",
                "075200.790000",
                "075200.795000",
                "075200.799000",
                "075200.803000",
                "075200.806000",
                "075200.810000",
                "075200.814000",
                "075200.818000",
                "075200.822000",
                "075200.826000",
                "075200.829000",
                "075200.834000",
                "075200.837000",
                "075200.842000",
                "075200.846000",
                "075200.850000",
                "075200.854000",
