{
    "AcquisitionMatrixPE": 96,
    "AcquisitionNumber": 1,
    "AcquisitionTime": "07:31:29.925000",
    "BandwidthPerPixelPhaseEncode": 33.602,
    "BaseResolution": 96,
    "BodyPartExamined": "BRAIN",
    "ConsistencyInfo": "N4_VD11D_LATEST_20110129",
    "ConversionSoftware": "dcm2niix",
    "ConversionSoftwareVersion": "v1.0.20210317",
    "DerivedVendorReportedEchoSpacing": 0.000620003,
    "DeviceSerialNumber": "45239",
    "DwellTime": 2.6e-06,
    "EchoTime": 0.03,
    "EchoTrainLength": 48,
    "EffectiveEchoSpacing": 0.000310001,
    "FlipAngle": 63,
    "ImageComments": "Unaliased MB4/PE3",
    "ImageOrientationPatientDICOM": [
        0.999455,
        0.0070666,
        0.0322495,
        0.0144873,
        0.783878,
        -0.620746
    ],
    "ImageType": [
        "ORIGINAL",
        "PRIMARY",
        "M",
        "ND",
        "NORM",
        "MOSAIC"
    ],
    "ImagingFrequency": 123.193,
    "InPlanePhaseEncodingDirectionDICOM": "COL",
    "InstitutionAddress": "E 24th St. 100,Austin,Southmiddle,US,78712",
    "InstitutionName": "Univ of Texas at Austin",
    "InstitutionalDepartmentName": "IRC",
    "MRAcquisitionType": "2D",
    "MagneticFieldStrength": 3,
    "Manufacturer": "Siemens",
    "ManufacturersModelName": "Skyra",
    "Modality": "MR",
    "MultibandAccelerationFactor": 4,
    "ParallelReductionFactorInPlane": 2,
    "PartialFourier": 1,
    "PatientPosition": "HFS",
    "PercentPhaseFOV": 100,
    "PercentSampling": 100,
    "PhaseEncodingDirection": "j-",
    "PhaseEncodingSteps": 96,
    "PhaseResolution": 1,
    "PixelBandwidth": 2005,
    "ProcedureStepDescription": "Poldrack2^self-scanning",
    "ProtocolName": "Resting State fMRI MBEPI_matrix96_BW2004",
    "PulseSequenceDetails": "%CustomerSeq%\\cmrr_mbep2d_bold",
    "ReceiveCoilActiveElements": "HEA;HEP",
    "ReceiveCoilName": "Head_32",
    "ReconMatrixPE": 96,
    "RefLinesPE": 94,
    "RepetitionTime": 1.16,
    "SAR": 0.0926935,
    "ScanOptions": "FS",
    "ScanningSequence": "EP",
    "SequenceName": "epfid2d1_96",
    "SequenceVariant": "SK",
    "SeriesDescription": "Resting State fMRI MBEPI_matrix96_BW2004",
    "SeriesNumber": 11,
    "ShimSetting": [
        -2770,
        8052,
        -15506,
        130,
        -192,
        -17,
        50,
        -51
    ],
    "SliceThickness": 2,
    "SliceTiming": [
        0,
        0.4975,
        0.995,
        0.355,
        0.8525,
        0.2125,
        0.71,
        0.07,
        0.5675,
        1.0675,
        0.4275,
        0.925,
        0.285,
        0.7825,
        0.1425,
        0.64,
        0,
        0.4975,
        0.995,
        0.355,
        0.8525,
        0.2125,
        0.71,
        0.07,
        0.5675,
        1.0675,
        0.4275,
        0.925,
        0.285,
        0.7825,
        0.1425,
        0.64,
        0,
        0.4975,
        0.995,
        0.355,
        0.8525,
        0.2125,
        0.71,
        0.07,
        0.5675,
        1.0675,
        0.4275,
        0.925,
        0.285,
        0.7825,
        0.1425,
        0.64,
        0,
        0.4975,
        0.995,
        0.355,
        0.8525,
        0.2125,
        0.71,
        0.07,
        0.5675,
        1.0675,
        0.4275,
        0.925,
        0.285,
        0.7825,
        0.1425,
        0.64
    ],
    "SoftwareVersions": "syngo MR D11",
    "SpacingBetweenSlices": 2.4,
    "StationName": "AWP45239",
    "TaskName": "Resting fmri",
    "TotalReadoutTime": 0.0294501,
    "TxRefAmp": 337.228,
    "WipMemBlock": "2b8d8562-5d73-4dc6-a54b-f7bfe9c2454e||Sequence: VD11D r195; Nov 21 2012 15:36:10 by eja",
    "dcmmeta_affine": [
        [
            -2.3945271968841553,
            0.03470909595489502,
            0.0711989551782608,
            115.08151245117188
        ],
        [
            -0.016930386424064636,
            1.8780415058135986,
            -1.4900985956192017,
            -55.717498779296875
        ],
        [
            0.07726439833641052,
            1.4872028827667236,
            1.880036473274231,
            -108.568115234375
        ],
        [
            0.0,
            0.0,
            0.0,
            1.0
        ]
    ],
    "dcmmeta_reorient_transform": [
        [
            0.0,
            -1.0,
            0.0,
            95.0
        ],
        [
            1.0,
            0.0,
            0.0,
            0.0
        ],
        [
            0.0,
            0.0,
            1.0,
            0.0
        ],
        [
            0.0,
            0.0,
            0.0,
            1.0
        ]
    ],
    "dcmmeta_shape": [
        96,
        96,
        64,
        518
    ],
    "dcmmeta_slice_dim": 2,
    "dcmmeta_version": 0.6,
    "global": {
        "const": {
            "AcquisitionMatrix": [
                96,
                0,
                0,
                96
            ],
            "AngioFlag": "N",
            "BitsAllocated": 16,
            "BitsStored": 16,
            "BodyPartExamined": "BRAIN",
            "Columns": 768,
            "EchoNumbers": 1,
            "EchoTime": 30.0,
            "EchoTrainLength": 48,
            "FlipAngle": 63.0,
            "HighBit": 15,
            "ImageOrientationPatient": [
                0.99945486820444,
                0.00706659609742,
                0.03224949057019,
                0.01448727494415,
                0.78387821934133,
                -0.6207455647099
            ],
            "ImagePositionPatient": [
                -934.602274549,
                -759.40700094203,
                506.45547852539
            ],
            "ImageType": [
                "ORIGINAL",
                "PRIMARY",
                "M",
                "ND",
                "NORM",
                "MOSAIC"
            ],
            "ImagedNucleus": "1H",
            "ImagingFrequency": 123.193424,
            "InPlanePhaseEncodingDirection": "COL",
            "MRAcquisitionType": "2D",
            "MagneticFieldStrength": 3.0,
            "Manufacturer": "SIEMENS",
            "ManufacturerModelName": "Skyra",
            "Modality": "MR",
            "NumberOfAverages": 1.0,
            "NumberOfPhaseEncodingSteps": 96,
            "PercentPhaseFieldOfView": 100.0,
            "PercentSampling": 100.0,
            "PerformedProcedureStepStartTime": "071321.625000",
            "PhotometricInterpretation": "MONOCHROME2",
            "PixelBandwidth": 2005.0,
            "PixelRepresentation": 0,
            "PixelSpacing": [
                2.3958332538605,
                2.3958332538605
            ],
            "ProtocolName": "Resting State fMRI MBEPI_matrix96_BW2004",
            "RepetitionTime": 1160.0,
            "Rows": 768,
            "SAR": 0.09269353051461,
            "SamplesPerPixel": 1,
            "ScanOptions": "FS",
            "ScanningSequence": "EP",
            "SequenceName": "epfid2d1_96",
            "SequenceVariant": "SK",
            "SeriesDescription": "Resting State fMRI MBEPI_matrix96_BW2004",
            "SeriesNumber": 11,
            "SeriesTime": "073212.812000",
            "SliceLocation": -47.03907346357,
            "SliceThickness": 2.0,
            "SmallestImagePixelValue": 0,
            "SoftwareVersions": "syngo MR D11",
            "SpacingBetweenSlices": 2.4000000265551,
            "SpecificCharacterSet": "ISO_IR 100",
            "StudyID": "1",
            "StudyTime": "071321.593000",
            "TransmitCoilName": "Body",
            "VariableFlipAngleFlag": "N",
            "WindowCenterWidthExplanation": "Algo1",
            "dBdt": 0.0
        },
        "slices": {}
    },
    "time": {
        "samples": {
            "AcquisitionNumber": [
                1,
                2,
                3,
                4,
                5,
                6,
                7,
                8,
                9,
                10,
                11,
                12,
                13,
                14,
                15,
                16,
                17,
                18,
                19,
                20,
                21,
                22,
                23,
                24,
                25,
                26,
                27,
                28,
                29,
                30,
                31,
                32,
                33,
                34,
                35,
                36,
                37,
                38,
                39,
                40,
                41,
                42,
                43,
                44,
                45,
                46,
                47,
                48,
                49,
                50,
                51,
                52,
                53,
                54,
                55,
                56,
                57,
                58,
                59,
                60,
                61,
                62,
                63,
                64,
                65,
                66,
                67,
                68,
                69,
                70,
                71,
                72,
                73,
                74,
                75,
                76,
                77,
                78,
                79,
                80,
                81,
                82,
                83,
                84,
                85,
                86,
                87,
                88,
                89,
                90,
                91,
                92,
                93,
                94,
                95,
                96,
                97,
                98,
                99,
                100,
                101,
                102,
                103,
                104,
                105,
                106,
                107,
                108,
                109,
                110,
                111,
                112,
                113,
                114,
                115,
                116,
                117,
                118,
                119,
                120,
                121,
                122,
                123,
                124,
                125,
                126,
                127,
                128,
                129,
                130,
                131,
                132,
                133,
                134,
                135,
                136,
                137,
                138,
                139,
                140,
                141,
                142,
                143,
                144,
                145,
                146,
                147,
                148,
                149,
                150,
                151,
                152,
                153,
                154,
                155,
                156,
                157,
                158,
                159,
                160,
                161,
                162,
                163,
                164,
                165,
                166,
                167,
                168,
                169,
                170,
                171,
                172,
                173,
                174,
                175,
                176,
                177,
                178,
                179,
                180,
                181,
                182,
                183,
                184,
                185,
                186,
                187,
                188,
                189,
                190,
                191,
                192,
                193,
                194,
                195,
                196,
                197,
                198,
                199,
                200,
                201,
                202,
                203,
                204,
                205,
                206,
                207,
                208,
                209,
                210,
                211,
                212,
                213,
                214,
                215,
                216,
                217,
                218,
                219,
                220,
                221,
                222,
                223,
                224,
                225,
                226,
                227,
                228,
                229,
                230,
                231,
                232,
                233,
                234,
                235,
                236,
                237,
                238,
                239,
                240,
                241,
                242,
                243,
                244,
                245,
                246,
                247,
                248,
                249,
                250,
                251,
                252,
                253,
                254,
                255,
                256,
                257,
                258,
                259,
                260,
                261,
                262,
                263,
                264,
                265,
                266,
                267,
                268,
                269,
                270,
                271,
                272,
                273,
                274,
                275,
                276,
                277,
                278,
                279,
                280,
                281,
                282,
                283,
                284,
                285,
                286,
                287,
                288,
                289,
                290,
                291,
                292,
                293,
                294,
                295,
                296,
                297,
                298,
                299,
                300,
                301,
                302,
                303,
                304,
                305,
                306,
                307,
                308,
                309,
                310,
                311,
                312,
                313,
                314,
                315,
                316,
                317,
                318,
                319,
                320,
                321,
                322,
                323,
                324,
                325,
                326,
                327,
                328,
                329,
                330,
                331,
                332,
                333,
                334,
                335,
                336,
                337,
                338,
                339,
                340,
                341,
                342,
                343,
                344,
                345,
                346,
                347,
                348,
                349,
                350,
                351,
                352,
                353,
                354,
                355,
                356,
                357,
                358,
                359,
                360,
                361,
                362,
                363,
                364,
                365,
                366,
                367,
                368,
                369,
                370,
                371,
                372,
                373,
                374,
                375,
                376,
                377,
                378,
                379,
                380,
                381,
                382,
                383,
                384,
                385,
                386,
                387,
                388,
                389,
                390,
                391,
                392,
                393,
                394,
                395,
                396,
                397,
                398,
                399,
                400,
                401,
                402,
                403,
                404,
                405,
                406,
                407,
                408,
                409,
                410,
                411,
                412,
                413,
                414,
                415,
                416,
                417,
                418,
                419,
                420,
                421,
                422,
                423,
                424,
                425,
                426,
                427,
                428,
                429,
                430,
                431,
                432,
                433,
                434,
                435,
                436,
                437,
                438,
                439,
                440,
                441,
                442,
                443,
                444,
                445,
                446,
                447,
                448,
                449,
                450,
                451,
                452,
                453,
                454,
                455,
                456,
                457,
                458,
                459,
                460,
                461,
                462,
                463,
                464,
                465,
                466,
                467,
                468,
                469,
                470,
                471,
                472,
                473,
                474,
                475,
                476,
                477,
                478,
                479,
                480,
                481,
                482,
                483,
                484,
                485,
                486,
                487,
                488,
                489,
                490,
                491,
                492,
                493,
                494,
                495,
                496,
                497,
                498,
                499,
                500,
                501,
                502,
                503,
                504,
                505,
                506,
                507,
                508,
                509,
                510,
                511,
                512,
                513,
                514,
                515,
                516,
                517,
                518
            ],
            "AcquisitionTime": [
                "073129.925000",
                "073158.925000",
                "073200.085000",
                "073201.245000",
                "073202.405000",
                "073203.565000",
                "073204.725000",
                "073205.885000",
                "073207.045000",
                "073208.205000",
                "073209.365000",
                "073210.525000",
                "073211.685000",
                "073212.845000",
                "073214.005000",
                "073215.165000",
                "073216.325000",
                "073217.485000",
                "073218.645000",
                "073219.805000",
                "073220.965000",
                "073222.125000",
                "073223.285000",
                "073224.445000",
                "073225.605000",
                "073226.765000",
                "073227.925000",
                "073229.085000",
                "073230.245000",
                "073231.405000",
                "073232.565000",
                "073233.725000",
                "073234.885000",
                "073236.045000",
                "073237.205000",
                "073238.365000",
                "073239.525000",
                "073240.685000",
                "073241.845000",
                "073243.005000",
                "073244.165000",
                "073245.325000",
                "073246.485000",
                "073247.645000",
                "073248.805000",
                "073249.965000",
                "073251.125000",
                "073252.285000",
                "073253.445000",
                "073254.605000",
                "073255.765000",
                "073256.925000",
                "073258.085000",
                "073259.245000",
                "073300.405000",
                "073301.565000",
                "073302.725000",
                "073303.885000",
                "073305.045000",
                "073306.205000",
                "073307.365000",
                "073308.525000",
                "073309.685000",
                "073310.845000",
                "073312.005000",
                "073313.165000",
                "073314.325000",
                "073315.485000",
                "073316.645000",
                "073317.805000",
                "073318.965000",
                "073320.125000",
                "073321.285000",
                "073322.445000",
                "073323.605000",
                "073324.765000",
                "073325.925000",
                "073327.085000",
                "073328.245000",
                "073329.405000",
                "073330.565000",
                "073331.725000",
                "073332.885000",
                "073334.045000",
                "073335.205000",
                "073336.365000",
                "073337.525000",
                "073338.685000",
                "073339.845000",
                "073341.005000",
                "073342.165000",
                "073343.325000",
                "073344.485000",
                "073345.645000",
                "073346.805000",
                "073347.965000",
                "073349.125000",
                "073350.285000",
                "073351.445000",
                "073352.605000",
                "073353.765000",
                "073354.925000",
                "073356.085000",
                "073357.245000",
                "073358.405000",
                "073359.565000",
                "073400.725000",
                "073401.885000",
                "073403.045000",
                "073404.205000",
                "073405.365000",
                "073406.525000",
                "073407.685000",
                "073408.845000",
                "073410.005000",
                "073411.165000",
                "073412.325000",
                "073413.485000",
                "073414.645000",
                "073415.805000",
                "073416.965000",
                "073418.125000",
                "073419.285000",
                "073420.445000",
                "073421.605000",
                "073422.765000",
                "073423.925000",
                "073425.085000",
                "073426.245000",
                "073427.405000",
                "073428.565000",
                "073429.725000",
                "073430.885000",
                "073432.045000",
                "073433.205000",
                "073434.365000",
                "073435.525000",
                "073436.685000",
                "073437.845000",
                "073439.005000",
                "073440.165000",
                "073441.325000",
                "073442.485000",
                "073443.645000",
                "073444.805000",
                "073445.965000",
                "073447.125000",
                "073448.285000",
                "073449.445000",
                "073450.605000",
                "073451.765000",
                "073452.925000",
                "073454.085000",
                "073455.245000",
                "073456.405000",
                "073457.565000",
                "073458.725000",
                "073459.885000",
                "073501.045000",
                "073502.205000",
                "073503.365000",
                "073504.525000",
                "073505.685000",
                "073506.845000",
                "073508.005000",
                "073509.165000",
                "073510.325000",
                "073511.485000",
                "073512.645000",
                "073513.805000",
                "073514.965000",
                "073516.125000",
                "073517.285000",
                "073518.445000",
                "073519.605000",
                "073520.765000",
                "073521.925000",
                "073523.085000",
                "073524.245000",
                "073525.405000",
                "073526.565000",
                "073527.725000",
                "073528.885000",
                "073530.045000",
                "073531.205000",
                "073532.365000",
                "073533.525000",
                "073534.685000",
                "073535.845000",
                "073537.005000",
                "073538.165000",
                "073539.325000",
                "073540.485000",
                "073541.645000",
                "073542.805000",
                "073543.965000",
                "073545.125000",
                "073546.285000",
                "073547.445000",
                "073548.605000",
                "073549.765000",
                "073550.925000",
                "073552.085000",
                "073553.245000",
                "073554.405000",
                "073555.565000",
                "073556.725000",
                "073557.885000",
                "073559.045000",
                "073600.205000",
                "073601.365000",
                "073602.525000",
                "073603.685000",
                "073604.845000",
                "073606.005000",
                "073607.165000",
                "073608.325000",
                "073609.485000",
                "073610.645000",
                "073611.805000",
                "073612.965000",
                "073614.125000",
                "073615.285000",
                "073616.445000",
                "073617.605000",
                "073618.765000",
                "073619.925000",
                "073621.085000",
                "073622.245000",
                "073623.405000",
                "073624.565000",
                "073625.727500",
                "073626.887500",
                "073628.047500",
                "073629.207500",
                "073630.367500",
                "073631.527500",
                "073632.687500",
                "073633.847500",
                "073635.007500",
                "073636.167500",
                "073637.327500",
                "073638.487500",
                "073639.647500",
                "073640.807500",
                "073641.967500",
                "073643.127500",
                "073644.287500",
                "073645.447500",
                "073646.607500",
                "073647.767500",
                "073648.927500",
                "073650.087500",
                "073651.247500",
                "073652.407500",
                "073653.567500",
                "073654.727500",
                "073655.887500",
                "073657.047500",
                "073658.207500",
                "073659.367500",
                "073700.527500",
                "073701.687500",
                "073702.847500",
                "073704.007500",
                "073705.167500",
                "073706.327500",
                "073707.487500",
                "073708.647500",
                "073709.807500",
                "073710.967500",
                "073712.127500",
                "073713.287500",
                "073714.447500",
                "073715.607500",
                "073716.767500",
                "073717.927500",
                "073719.087500",
                "073720.247500",
                "073721.407500",
                "073722.567500",
                "073723.727500",
                "073724.887500",
                "073726.047500",
                "073727.207500",
                "073728.367500",
                "073729.527500",
                "073730.687500",
                "073731.847500",
                "073733.007500",
                "073734.167500",
                "073735.327500",
                "073736.487500",
                "073737.647500",
                "073738.807500",
                "073739.967500",
                "073741.127500",
                "073742.287500",
                "073743.447500",
                "073744.607500",
                "073745.767500",
                "073746.927500",
                "073748.087500",
                "073749.247500",
                "073750.407500",
                "073751.567500",
                "073752.727500",
                "073753.887500",
                "073755.047500",
                "073756.207500",
                "073757.367500",
                "073758.527500",
                "073759.687500",
                "073800.847500",
                "073802.007500",
                "073803.167500",
                "073804.327500",
                "073805.487500",
                "073806.647500",
                "073807.807500",
                "073808.967500",
                "073810.127500",
                "073811.287500",
                "073812.447500",
                "073813.607500",
                "073814.767500",
                "073815.927500",
                "073817.087500",
                "073818.247500",
                "073819.407500",
                "073820.567500",
                "073821.727500",
                "073822.887500",
                "073824.047500",
                "073825.207500",
                "073826.367500",
                "073827.527500",
                "073828.687500",
                "073829.847500",
                "073831.007500",
                "073832.167500",
                "073833.327500",
                "073834.487500",
                "073835.647500",
                "073836.807500",
                "073837.967500",
                "073839.127500",
