{"AcquisitionMatrixPE": 96, "AcquisitionNumber": 1, "AcquisitionTime": "07:35:20.970000", "BandwidthPerPixelPhaseEncode": 33.602, "BaseResolution": 96, "BodyPartExamined": "BRAIN", "ConsistencyInfo": "N4_VD11D_LATEST_20110129", "ConversionSoftware": "dcm2niix", "ConversionSoftwareVersion": "v1.0.20210317", "DerivedVendorReportedEchoSpacing": 0.000620003, "DeviceSerialNumber": "45239", "DwellTime": 2.6e-06, "EchoTime": 0.03, "EchoTrainLength": 48, "EffectiveEchoSpacing": 0.000310001, "FlipAngle": 63, "ImageComments": "Unaliased MB4/PE3", "ImageOrientationPatientDICOM": [0.998371, 0.00530082, 0.0568067, 0.0263715, 0.840053, -0.541863], "ImageType": ["ORIGINAL", "PRIMARY", "M", "ND", "NORM", "MOSAIC"], "ImagingFrequency": 123.193, "InPlanePhaseEncodingDirectionDICOM": "COL", "InstitutionAddress": "E 24th St. 100,Austin,Southmiddle,US,78712", "InstitutionName": "Univ of Texas at Austin", "InstitutionalDepartmentName": "IRC", "MRAcquisitionType": "2D", "MagneticFieldStrength": 3, "Manufacturer": "Siemens", "ManufacturersModelName": "Skyra", "Modality": "MR", "MultibandAccelerationFactor": 4, "ParallelReductionFactorInPlane": 2, "PartialFourier": 1, "PatientPosition": "HFS", "PercentPhaseFOV": 100, "PercentSampling": 100, "PhaseEncodingDirection": "j-", "PhaseEncodingSteps": 96, "PhaseResolution": 1, "PixelBandwidth": 2005, "ProcedureStepDescription": "Poldrack2^self-scanning", "ProtocolName": "Resting State fMRI MBEPI_matrix96_BW2004", "PulseSequenceDetails": "%CustomerSeq%\\cmrr_mbep2d_bold", "ReceiveCoilActiveElements": "HEA;HEP", "ReceiveCoilName": "Head_32", "ReconMatrixPE": 96, "RefLinesPE": 94, "RepetitionTime": 1.16, "SAR": 0.110931, "ScanOptions": "FS", "ScanningSequence": "EP", "SequenceName": "epfid2d1_96", "SequenceVariant": "SK", "SeriesDescription": "Resting State fMRI MBEPI_matrix96_BW2004", "SeriesNumber": 9, "ShimSetting": [-2760, 8014, -15457, 201, -184, 79, 235, -105], "SliceThickness": 2, "SliceTiming": [0, 0.6125, 0.0675, 0.68, 0.135, 0.75, 0.205, 0.8175, 0.2725, 0.885, 0.34, 0.955, 0.4075, 1.0225, 0.4775, 1.09, 0.545, 0, 0.6125, 0.0675, 0.68, 0.135, 0.75, 0.205, 0.8175, 0.2725, 0.885, 0.34, 0.955, 0.4075, 1.0225, 0.4775, 1.09, 0.545, 0, 0.6125, 0.0675, 0.68, 0.135, 0.75, 0.205, 0.8175, 0.2725, 0.885, 0.34, 0.955, 0.4075, 1.0225, 0.4775, 1.09, 0.545, 0, 0.6125, 0.0675, 0.68, 0.135, 0.75, 0.205, 0.8175, 0.2725, 0.885, 0.34, 0.955, 0.4075, 1.0225, 0.4775, 1.09, 0.545], "SoftwareVersions": "syngo MR D11", "SpacingBetweenSlices": 2.4, "StationName": "AWP45239", "TaskName": "Resting fmri", "TotalReadoutTime": 0.0294501, "TxRefAmp": 348.9, "WipMemBlock": "9bb30b8e-d238-473e-a1ac-0610c899b282||Sequence: VD11D r154; May 23 2012 22:27:19 by eja", "dcmmeta_affine": [[-2.3919308185577393, 0.06318161636590958, 0.12142306566238403, 108.8541259765625], [-0.01269987691193819, 2.0126264095306396, -1.301949143409729, -63.90427780151367], [0.13609938323497772, 1.298214316368103, 2.0125069618225098, -102.93244171142578], [0.0, 0.0, 0.0, 1.0]], "dcmmeta_reorient_transform": [[0.0, -1.0, 0.0, 95.0], [1.0, 0.0, 0.0, 0.0], [0.0, 0.0, 1.0, 0.0], [0.0, 0.0, 0.0, 1.0]], "dcmmeta_shape": [96, 96, 68, 518], "dcmmeta_slice_dim": 2, "dcmmeta_version": 0.6, "global": {"const": {"AcquisitionMatrix": [96, 0, 0, 96], "AngioFlag": "N", "BitsAllocated": 16, "BitsStored": 16, "BodyPartExamined": "BRAIN", "Columns": 864, "EchoNumbers": 1, "EchoTime": 30.0, "EchoTrainLength": 48, "FlipAngle": 63.0, "HighBit": 15, "ImageOrientationPatient": [0.99837112346592, 0.00530081852065, 0.05680669989017, 0.02637145887018, 0.84005275273476, -0.5418633764888], "ImagePositionPatient": [-1057.6195229106, -905.02048227466, 466.65004148411], "ImageType": ["ORIGINAL", "PRIMARY", "M", "ND", "NORM", "MOSAIC"], "ImagedNucleus": "1H", "ImagingFrequency": 123.193386, "InPlanePhaseEncodingDirection": "COL", "MRAcquisitionType": "2D", "MagneticFieldStrength": 3.0, "Manufacturer": "SIEMENS", "ManufacturerModelName": "Skyra", "Modality": "MR", "NumberOfAverages": 1.0, "NumberOfPhaseEncodingSteps": 96, "PercentPhaseFieldOfView": 100.0, "PercentSampling": 100.0, "PerformedProcedureStepStartTime": "072219.875000", "PhotometricInterpretation": "MONOCHROME2", "PixelBandwidth": 2005.0, "PixelRepresentation": 0, "PixelSpacing": [2.3958332538605, 2.3958332538605], "ProtocolName": "Resting State fMRI MBEPI_matrix96_BW2004", "RepetitionTime": 1160.0, "Rows": 864, "SAR": 0.11093069513642, "SamplesPerPixel": 1, "ScanOptions": "FS", "ScanningSequence": "EP", "SequenceName": "epfid2d1_96", "SequenceVariant": "SK", "SeriesDescription": "Resting State fMRI MBEPI_matrix96_BW2004", "SeriesNumber": 9, "SeriesTime": "073608.484000", "SliceLocation": -46.139479328205, "SliceThickness": 2.0, "SmallestImagePixelValue": 0, "SoftwareVersions": "syngo MR D11", "SpacingBetweenSlices": 2.3999999611402, "SpecificCharacterSet": "ISO_IR 100", "StudyID": "1", "StudyTime": "072219.843000", "TransmitCoilName": "Body", "VariableFlipAngleFlag": "N", "WindowCenterWidthExplanation": "Algo1", "dBdt": 0.0}, "slices": {}}, "time": {"samples": {"AcquisitionNumber": [1, 2, 3, 4, 5, 6, 7, 8, 9, 10, 11, 12, 13, 14, 15, 16, 17, 18, 19, 20, 21, 22, 23, 24, 25, 26, 27, 28, 29, 30, 31, 32, 33, 34, 35, 36, 37, 38, 39, 40, 41, 42, 43, 44, 45, 46, 47, 48, 49, 50, 51, 52, 53, 54, 55, 56, 57, 58, 59, 60, 61, 62, 63, 64, 65, 66, 67, 68, 69, 70, 71, 72, 73, 74, 75, 76, 77, 78, 79, 80, 81, 82, 83, 84, 85, 86, 87, 88, 89, 90, 91, 92, 93, 94, 95, 96, 97, 98, 99, 100, 101, 102, 103, 104, 105, 106, 107, 108, 109, 110, 111, 112, 113, 114, 115, 116, 117, 118, 119, 120, 121, 122, 123, 124, 125, 126, 127, 128, 129, 130, 131, 132, 133, 134, 135, 136, 137, 138, 139, 140, 141, 142, 143, 144, 145, 146, 147, 148, 149, 150, 151, 152, 153, 154, 155, 156, 157, 158, 159, 160, 161, 162, 163, 164, 165, 166, 167, 168, 169, 170, 171, 172, 173, 174, 175, 176, 177, 178, 179, 180, 181, 182, 183, 184, 185, 186, 187, 188, 189, 190, 191, 192, 193, 194, 195, 196, 197, 198, 199, 200, 201, 202, 203, 204, 205, 206, 207, 208, 209, 210, 211, 212, 213, 214, 215, 216, 217, 218, 219, 220, 221, 222, 223, 224, 225, 226, 227, 228, 229, 230, 231, 232, 233, 234, 235, 236, 237, 238, 239, 240, 241, 242, 243, 244, 245, 246, 247, 248, 249, 250, 251, 252, 253, 254, 255, 256, 257, 258, 259, 260, 261, 262, 263, 264, 265, 266, 267, 268, 269, 270, 271, 272, 273, 274, 275, 276, 277, 278, 279, 280, 281, 282, 283, 284, 285, 286, 287, 288, 289, 290, 291, 292, 293, 294, 295, 296, 297, 298, 299, 300, 301, 302, 303, 304, 305, 306, 307, 308, 309, 310, 311, 312, 313, 314, 315, 316, 317, 318, 319, 320, 321, 322, 323, 324, 325, 326, 327, 328, 329, 330, 331, 332, 333, 334, 335, 336, 337, 338, 339, 340, 341, 342, 343, 344, 345, 346, 347, 348, 349, 350, 351, 352, 353, 354, 355, 356, 357, 358, 359, 360, 361, 362, 363, 364, 365, 366, 367, 368, 369, 370, 371, 372, 373, 374, 375, 376, 377, 378, 379, 380, 381, 382, 383, 384, 385, 386, 387, 388, 389, 390, 391, 392, 393, 394, 395, 396, 397, 398, 399, 400, 401, 402, 403, 404, 405, 406, 407, 408, 409, 410, 411, 412, 413, 414, 415, 416, 417, 418, 419, 420, 421, 422, 423, 424, 425, 426, 427, 428, 429, 430, 431, 432, 433, 434, 435, 436, 437, 438, 439, 440, 441, 442, 443, 444, 445, 446, 447, 448, 449, 450, 451, 452, 453, 454, 455, 456, 457, 458, 459, 460, 461, 462, 463, 464, 465, 466, 467, 468, 469, 470, 471, 472, 473, 474, 475, 476, 477, 478, 479, 480, 481, 482, 483, 484, 485, 486, 487, 488, 489, 490, 491, 492, 493, 494, 495, 496, 497, 498, 499, 500, 501, 502, 503, 504, 505, 506, 507, 508, 509, 510, 511, 512, 513, 514, 515, 516, 517, 518], "AcquisitionTime": ["073520.970000", "073549.970000", "073551.130000", "073552.290000", "073553.450000", "073554.610000", "073555.770000", "073556.930000", "073558.090000", "073559.250000", "073600.410000", "073601.570000", "073602.730000", "073603.890000", "073605.050000", "073606.210000", "073607.370000", "073608.530000", "073609.690000", "073610.850000", "073612.010000", "073613.170000", "073614.330000", "073615.490000", "073616.650000", "073617.810000", "073618.970000", "073620.130000", "073621.290000", "073622.450000", "073623.610000", "073624.770000", "073625.930000", "073627.090000", "073628.250000", "073629.410000", "073630.570000", "073631.730000", "073632.890000", "073634.050000", "073635.210000", "073636.370000", "073637.530000", "073638.690000", "073639.850000", "073641.010000", "073642.170000", "073643.330000", "073644.490000", "073645.650000", "073646.810000", "073647.970000", "073649.130000", "073650.290000", "073651.450000", "073652.610000", "073653.770000", "073654.930000", "073656.090000", "073657.250000", "073658.410000", "073659.570000", "073700.730000", "073701.890000", "073703.050000", "073704.210000", "073705.370000", "073706.530000", "073707.690000", "073708.850000", "073710.010000", "073711.170000", "073712.330000", "073713.490000", "073714.650000", "073715.810000", "073716.970000", "073718.130000", "073719.290000", "073720.450000", "073721.610000", "073722.770000", "073723.930000", "073725.090000", "073726.250000", "073727.410000", "073728.570000", "073729.730000", "073730.890000", "073732.050000", "073733.210000", "073734.370000", "073735.530000", "073736.690000", "073737.850000", "073739.010000", "073740.170000", "073741.330000", "073742.490000", "073743.650000", "073744.810000", "073745.970000", "073747.130000", "073748.290000", "073749.450000", "073750.610000", "073751.770000", "073752.930000", "073754.090000", "073755.250000", "073756.410000", "073757.570000", "073758.730000", "073759.890000", "073801.050000", "073802.210000", "073803.370000", "073804.530000", "073805.690000", "073806.850000", "073808.010000", "073809.170000", "073810.330000", "073811.490000", "073812.650000", "073813.810000", "073814.970000", "073816.130000", "073817.290000", "073818.450000", "073819.610000", "073820.770000", "073821.930000", "073823.090000", "073824.250000", "073825.410000", "073826.570000", "073827.730000", "073828.890000", "073830.050000", "073831.210000", "073832.370000", "073833.530000", "073834.690000", "073835.850000", "073837.010000", "073838.170000", "073839.330000", "073840.490000", "073841.650000", "073842.810000", "073843.970000", "073845.130000", "073846.290000", "073847.450000", "073848.610000", "073849.770000", "073850.930000", "073852.090000", "073853.250000", "073854.410000", "073855.570000", "073856.730000", "073857.890000", "073859.050000", "073900.210000", "073901.370000", "073902.530000", "073903.690000", "073904.850000", "073906.010000", "073907.170000", "073908.330000", "073909.490000", "073910.650000", "073911.810000", "073912.970000", "073914.130000", "073915.290000", "073916.450000", "073917.610000", "073918.770000", "073919.930000", "073921.090000", "073922.250000", "073923.410000", "073924.570000", "073925.730000", "073926.890000", "073928.050000", "073929.210000", "073930.370000", "073931.530000", "073932.690000", "073933.850000", "073935.010000", "073936.170000", "073937.330000", "073938.490000", "073939.650000", "073940.810000", "073941.970000", "073943.130000", "073944.290000", "073945.450000", "073946.610000", "073947.770000", "073948.930000", "073950.090000", "073951.250000", "073952.410000", "073953.570000", "073954.730000", "073955.890000", "073957.050000", "073958.210000", "073959.370000", "074000.530000", "074001.690000", "074002.850000", "074004.010000", "074005.170000", "074006.330000", "074007.490000", "074008.650000", "074009.810000", "074010.970000", "074012.130000", "074013.290000", "074014.450000", "074015.610000", "074016.770000", "074017.930000", "074019.090000", "074020.250000", "074021.410000", "074022.570000", "074023.730000", "074024.890000", "074026.050000", "074027.210000", "074028.370000", "074029.530000", "074030.690000", "074031.850000", "074033.010000", "074034.170000", "074035.330000", "074036.490000", "074037.650000", "074038.810000", "074039.970000", "074041.130000", "074042.290000", "074043.450000", "074044.610000", "074045.770000", "074046.930000", "074048.090000", "074049.250000", "074050.410000", "074051.570000", "074052.730000", "074053.890000", "074055.050000", "074056.210000", "074057.370000", "074058.530000", "074059.690000", "074100.850000", "074102.010000", "074103.170000", "074104.330000", "074105.490000", "074106.650000", "074107.810000", "074108.970000", "074110.130000", "074111.290000", "074112.450000", "074113.610000", "074114.770000", "074115.930000", "074117.090000", "074118.250000", "074119.410000", "074120.570000", "074121.730000", "074122.890000", "074124.050000", "074125.210000", "074126.370000", "074127.530000", "074128.690000", "074129.850000", "074131.010000", "074132.170000", "074133.330000", "074134.490000", "074135.650000", "074136.810000", "074137.970000", "074139.130000", "074140.290000", "074141.450000", "074142.610000", "074143.770000", "074144.930000", "074146.090000", "074147.250000", "074148.410000", "074149.570000", "074150.730000", "074151.890000", "074153.050000", "074154.210000", "074155.370000", "074156.530000", "074157.690000", "074158.850000", "074200.010000", "074201.170000", "074202.330000", "074203.490000", "074204.650000", "074205.810000", "074206.970000", "074208.130000", "074209.290000", "074210.450000", "074211.610000", "074212.770000", "074213.930000", "074215.090000", "074216.250000", "074217.410000", "074218.570000", "074219.730000", "074220.890000", "074222.050000", "074223.210000", "074224.370000", "074225.530000", "074226.690000", "074227.850000", "074229.010000", "074230.170000", "074231.330000", "074232.490000", "074233.650000", "074234.810000", "074235.970000", "074237.130000", "074238.290000", "074239.450000", "074240.610000", "074241.770000", "074242.930000", "074244.090000", "074245.250000", "074246.410000", "074247.570000", "074248.730000", "074249.890000", "074251.050000", "074252.210000", "074253.370000", "074254.530000", "074255.690000", "074256.850000", "074258.010000", "074259.170000", "074300.330000", "074301.490000", "074302.650000", "074303.810000", "074304.970000", "074306.130000", "074307.290000", "074308.450000", "074309.610000", "074310.770000", "074311.930000", "074313.090000", "074314.250000", "074315.410000", "074316.570000", "074317.730000", "074318.890000", "074320.050000", "074321.210000", "074322.370000", "074323.530000", "074324.690000", "074325.850000", "074327.010000", "074328.170000", "074329.330000", "074330.490000", "074331.650000", "074332.810000", "074333.970000", "074335.130000", "074336.290000", "074337.450000", "074338.610000", "074339.770000", "074340.930000", "074342.090000", "074343.250000", "074344.410000", "074345.570000", "074346.730000", "074347.890000", "074349.050000", "074350.210000", "074351.370000", "074352.530000", "074353.690000", "074354.850000", "074356.010000", "074357.170000", "074358.330000", "074359.490000", "074400.650000", "074401.810000", "074402.970000", "074404.130000", "074405.290000", "074406.450000", "074407.610000", "074408.770000", "074409.930000", "074411.090000", "074412.250000", "074413.410000", "074414.570000", "074415.730000", "074416.890000", "074418.050000", "074419.210000", "074420.370000", "074421.530000", "074422.690000", "074423.850000", "074425.010000", "074426.170000", "074427.330000", "074428.490000", "074429.650000", "074430.810000", "074431.970000", "074433.130000", "074434.290000", "074435.450000", "074436.610000", "074437.770000", "074438.930000", "074440.090000", "074441.250000", "074442.410000", "074443.570000", "074444.730000", "074445.890000", "074447.050000", "074448.210000", "074449.370000", "074450.530000", "074451.690000", "074452.850000", "074454.010000", "074455.170000", "074456.330000", "074457.490000", "074458.650000", "074459.810000", "074500.970000", "074502.130000", "074503.290000", "074504.450000", "074505.610000", "074506.770000", "074507.930000", "074509.090000", "074510.250000", "074511.410000", "074512.570000", "074513.730000", "074514.890000", "074516.050000", "074517.210000", "074518.370000", "074519.530000", "074520.690000", "074521.850000", "074523.010000", "074524.170000", "074525.330000", "074526.490000", "074527.650000", "074528.810000", "074529.970000", "074531.130000", "074532.290000", "074533.450000", "074534.610000", "074535.770000", "074536.930000", "074538.090000", "074539.250000", "074540.410000", "074541.570000", "074542.730000", "074543.890000", "074545.050000", "074546.210000", "074547.370000", "074548.530000"], "ContentTime": ["073608.484000", "073616.671000", "073616.671000", "073616.671000", "073616.687000", "073616.687000", "073621.671000", "073621.671000", "073621.671000", "073626.671000", "073626.671000", "073631.671000", "073631.671000", "073631.671000", "073636.671000", "073636.671000", "073641.671000", "073641.671000", "073641.671000", "073646.671000", "073646.671000", "073646.671000", "073651.671000", "073651.671000", "073656.671000", "073656.671000", "073656.671000", "073701.671000", "073701.671000", "073701.671000", "073706.671000", "073706.671000", "073711.671000", "073711.671000", "073716.671000", "073716.671000", "073716.687000", "073721.671000", "073721.671000", "073721.671000", "073726.671000", "073726.671000", "073731.671000", "073731.671000", "073731.687000", "073736.671000", "073736.671000", "073741.671000", "073741.671000", "073741.671000", "073746.671000", "073746.671000", "073751.671000", "073751.671000", "073751.671000", "073756.671000", "073756.671000", "073801.671000", "073801.671000", "073801.687000", "073806.671000", "073806.671000", "073806.671000", "073811.671000", "073811.671000", "073816.671000", "073816.671000", "073821.671000", "073821.671000", "073821.687000", "073826.671000", "073826.671000", "073831.671000", "073831.671000", "073831.671000", "073836.671000", "073836.671000", "073836.687000", "073841.671000", "073841.671000", "073846.671000", "073846.671000", "073846.671000", "073851.671000", "073851.671000", "073851.671000", "073856.671000", "073856.671000", "073901.671000", "073901.671000", "073901.687000", "073906.671000", "073906.671000", "073911.671000", "073911.671000", "073911.671000", "073916.671000", "073916.671000", "073921.671000", "073921.671000", "073921.687000", "073926.671000", "073926.671000", "073926.671000", "073931.671000", "073931.671000", "073936.671000", "073936.671000", "073936.687000", "073941.671000", "073941.671000", "073946.671000", "073946.671000", "073946.671000", "073951.671000", "073951.671000", "073956.671000", "073956.671000", "073956.671000", "074001.671000", "074001.671000", "074006.671000", "074006.671000", "074006.671000", "074011.671000", "074011.671000", "074011.671000", "074016.671000", "074016.671000", "074021.671000", "074021.671000", "074021.671000", "074026.671000", "074026.687000", "074031.671000", "074031.687000", "074031.687000", "074036.671000", "074036.671000", "074036.671000", "074041.671000", "074041.687000", "074046.671000", "074046.671000", "074046.671000", "074051.671000", "074051.671000", "074056.671000", "074056.671000", "074056.687000", "074101.671000", "074101.671000", "074106.671000", "074106.671000", "074106.671000", "074111.671000", "074111.671000", "074116.671000", "074116.671000", "074116.671000", "074121.671000", "074121.671000", "074126.671000", "074126.671000", "074126.671000", "074131.671000", "074131.671000", "074131.671000", "074136.671000", "074136.671000", "074141.671000", "074141.671000", "074141.671000", "074146.671000", "074146.671000", "074151.671000", "074151.671000", "074151.687000", "074156.671000", "074156.671000", "074201.671000", "074201.671000", "074201.671000", "074206.671000", "074206.671000", "074211.671000", "074211.671000", "074211.671000", "074216.671000", "074216.671000", "074216.687000", "074221.671000", "074221.671000", "074226.671000", "074226.671000", "074231.671000", "074231.671000", "074231.687000", "074236.671000", "074236.671000", "074236.671000", "074241.671000", "074241.671000", "074246.671000", "074246.671000", "074246.687000", "074251.671000", "074251.671000", "074256.671000", "074256.671000", "074256.671000", "074301.671000", "074301.671000", "074301.671000", "074306.671000", "074306.671000", "074311.671000", "074311.671000", "074311.671000", "074316.671000", "074316.671000", "074321.671000", "074321.671000", "074321.671000", "074326.671000", "074326.671000", "074326.671000", "074331.671000", "074331.671000", "074336.671000", "074336.671000", "074336.671000", "074341.671000", "074341.687000", "074346.671000", "074346.671000", "074346.687000", "074351.671000", "074351.671000", "074351.671000", "074356.671000", "074356.671000", "074401.671000", "074401.671000", "074401.671000", "074406.671000", "074406.671000", "074411.671000", "074411.671000", "074416.671000", "074416.671000", "074416.671000", "074421.671000", "074421.671000", "074426.671000", "074426.671000", "074426.687000", "074431.671000", "074431.671000", "074436.671000", "074436.671000", "074436.687000", "074441.671000", "074441.671000", "074441.671000", "074446.671000", "074446.671000", "074451.671000", "074451.671000", "074451.671000", "074456.671000", "074456.671000", "074501.671000", "074501.671000", "074501.671000", "074506.671000", "074506.671000", "074511.671000", "074511.671000", "074511.671000", "074516.671000", "074516.671000", "074516.671000", "074521.671000", "074521.671000", "074526.671000", "074526.671000", "074526.671000", "074531.671000", "074531.671000", "074536.671000", "074536.671000", "074536.687000", "074541.671000", "074541.671000", "074541.671000", "074546.671000", "074546.671000", "074551.671000", "074551.671000", "074551.671000", "074556.671000", "074556.671000", "074601.671000", "074601.671000", "074601.671000", "074606.671000", "074606.671000", "074606.671000", "074611.671000", "074611.671000", "074611.671000", "074616.671000", "074616.671000", "074616.671000", "074621.671000", "074621.671000", "074626.671000", "074626.671000", "074626.671000", "074631.671000", "074631.671000", "074631.687000", "074636.671000", "074636.671000", "074641.671000", "074641.671000", "074641.671000", "074646.671000", "074646.671000", "074646.687000", "074651.671000", "074651.671000", "074651.687000", "074656.671000", "074656.671000", "074701.671000", "074701.671000", "074701.687000", "074706.671000", "074706.671000", "074706.687000", "074711.671000", "074711.671000", "074716.671000", "074716.671000", "074716.671000", "074721.671000", "074721.671000", "074721.671000", "074726.671000", "074726.671000", "074731.671000", "074731.671000", "074731.687000", "074736.671000", "074736.671000", "074736.687000", "074741.671000", "074741.671000", "074741.671000", "074746.671000", "074746.671000", "074751.671000", "074751.671000", "074751.687000", "074756.671000", "074756.671000", "074756.671000", "074806.671000", "074806.671000", "074806.671000", "074806.671000", "074806.671000", "074811.671000", "074811.671000", "074811.671000", "074816.671000", "074816.687000", "074821.671000", "074821.671000", "074821.671000", "074826.671000", "074826.671000", "074826.687000", "074831.671000", "074831.687000", "074836.671000", "074836.687000", "074836.687000", "074841.671000", "074841.671000", "074841.671000", "074846.671000", "074846.671000", "074846.671000", "074851.671000", "074851.671000", "074856.671000", "074856.671000", "074856.671000", "074901.671000", "074901.671000", "074901.671000", "074906.671000", "074906.671000", "074906.687000", "074911.671000", "074911.671000", "074916.671000", "074916.671000", "074916.671000", "074921.671000", "074921.671000", "074921.687000", "074926.671000", "074926.671000", "074926.671000", "074931.671000", "074931.671000", "074931.671000", "074936.671000", "074936.671000", "074941.671000", "074941.671000", "074941.671000", "074946.671000", "074946.671000", "074946.671000", "074951.671000", "074951.671000", "074951.671000", "074956.671000", "074956.671000", "075001.671000", "075001.671000", "075001.671000", "075006.671000", "075006.671000", "075006.671000", "075011.671000", "075011.671000", "075011.671000", "075016.671000", "075016.671000", "075021.671000", "075021.671000", "075021.671000", "075026.671000", "075026.671000", "075026.671000", "075031.671000", "075031.671000", "075031.671000", "075036.671000", "075036.687000", "075041.671000", "075041.687000", "075041.687000", "075046.671000", "075046.671000", "075046.687000", "075051.671000", "075051.687000", "075056.671000", "075056.687000", "075056.687000", "075101.671000", "075101.671000", "075101.671000", "075106.671000", "075106.671000", "075106.671000", "075111.671000", "075111.687000", "075111.687000", "075116.671000", "075116.671000", "075121.671000", "075121.671000", "075121.671000", "075126.671000", "075126.671000", "075131.671000", "075131.671000", "075131.671000", "075136.671000", "075136.671000", "075136.671000", "075141.671000", "075141.671000", "075146.671000", "075146.671000", "075146.671000", "075151.671000", "075151.671000", "075156.671000", "075156.671000", "075156.671000", "075201.671000", "075201.671000", "075201.671000", "075206.671000", "075206.671000", "075211.671000", "075211.671000", "075211.671000", "075216.671000", "075216.671000", "075216.671000", "075221.671000", "075221.671000", "075221.671000", "075226.671000", "075226.671000", "075226.671000", "075229.968000", "075229.968000"], "InstanceCreationTime": ["073608.484000", "073616.671000", "073616.671000", "073616.671000", "073616.687000", "073616.687000", "073621.671000", "073621.671000", "073621.671000", "073626.671000", "073626.671000", "073631.671000", "073631.671000", "073631.671000", "073636.671000", "073636.671000", "073641.671000", "073641.671000", "073641.671000", "073646.671000", "073646.671000", "073646.671000", "073651.671000", "073651.671000", "073656.671000", "073656.671000", "073656.671000", "073701.671000", "073701.671000", "073701.671000", "073706.671000", "073706.671000", "073711.671000", "073711.671000", "073716.671000", "073716.671000", "073716.687000", "073721.671000", "073721.671000", "073721.671000", "073726.671000", "073726.671000", "073731.671000", "073731.671000", "073731.687000", "073736.671000", "073736.671000", "073741.671000", "073741.671000", "073741.671000", "073746.671000", "073746.671000", "073751.671000", "073751.671000", "073751.671000", "073756.671000", "073756.671000", "073801.671000", "073801.671000", "073801.687000", "073806.671000", "073806.671000", "073806.671000", "073811.671000", "073811.671000", "073816.671000", "073816.671000", "073821.671000", "073821.671000", "073821.687000", "073826.671000", "073826.671000", "073831.671000", "073831.671000", "073831.671000", "073836.671000", "073836.671000", "073836.687000", "073841.671000", "073841.671000", "073846.671000", "073846.671000", "073846.671000", "073851.671000", "073851.671000", "073851.671000", "073856.671000", "073856.671000", "073901.671000", "073901.671000", "073901.687000", "073906.671000", "073906.671000", "073911.671000", "073911.671000", "073911.671000", "073916.671000", "073916.671000", "073921.671000", "073921.671000", "073921.687000", "073926.671000", "073926.671000", "073926.671000", "073931.671000", "073931.671000", "073936.671000", "073936.671000", "073936.687000", "073941.671000", "073941.671000", "073946.671000", "073946.671000", "073946.671000", "073951.671000", "073951.671000", "073956.671000", "073956.671000", "073956.671000", "074001.671000", "074001.671000", "074006.671000", "074006.671000", "074006.671000", "074011.671000", "074011.671000", "074011.671000", "074016.671000", "074016.671000", "074021.671000", "074021.671000", "074021.671000", "074026.671000", "074026.687000", "074031.671000", "074031.687000", "074031.687000", "074036.671000", "074036.671000", "074036.671000", "074041.671000", "074041.687000", "074046.671000", "074046.671000", "074046.671000", "074051.671000", "074051.671000", "074056.671000", "074056.671000", "074056.687000", "074101.671000", "074101.671000", "074106.671000", "074106.671000", "074106.671000", "074111.671000", "074111.671000", "074116.671000", "074116.671000", "074116.671000", "074121.671000", "074121.671000", "074126.671000", "074126.671000", "074126.671000", "074131.671000", "074131.671000", "074131.671000", "074136.671000", "074136.671000", "074141.671000", "074141.671000", "074141.671000", "074146.671000", "074146.671000", "074151.671000", "074151.671000", "074151.687000", "074156.671000", "074156.671000", "074201.671000", "074201.671000", "074201.671000", "074206.671000", "074206.671000", "074211.671000", "074211.671000", "074211.671000", "074216.671000", "074216.671000", "074216.687000", "074221.671000", "074221.671000", "074226.671000", "074226.671000", "074231.671000", "074231.671000", "074231.687000", "074236.671000", "074236.671000", "074236.671000", "074241.671000", "074241.671000", "074246.671000", "074246.671000", "074246.687000", "074251.671000", "074251.671000", "074256.671000", "074256.671000", "074256.671000", "074301.671000", "074301.671000", "074301.671000", "074306.671000", "074306.671000", "074311.671000", "074311.671000", "074311.671000", "074316.671000", "074316.671000", "074321.671000", "074321.671000", "074321.671000", "074326.671000", "074326.671000", "074326.671000", "074331.671000", "074331.671000", "074336.671000", "074336.671000", "074336.671000", "074341.671000", "074341.687000", "074346.671000", "074346.671000", "074346.687000", "074351.671000", "074351.671000", "074351.671000", "074356.671000", "074356.671000", "074401.671000", "074401.671000", "074401.671000", "074406.671000", "074406.671000", "074411.671000", "074411.671000", "074416.671000", "074416.671000", "074416.671000", "074421.671000", "074421.671000", "074426.671000", "074426.671000", "074426.687000", "074431.671000", "074431.671000", "074436.671000", "074436.671000", "074436.687000", "074441.671000", "074441.671000", "074441.671000", "074446.671000", "074446.671000", "074451.671000", "074451.671000", "074451.671000", "074456.671000", "074456.671000", "074501.671000", "074501.671000", "074501.671000", "074506.671000", "074506.671000", "074511.671000", "074511.671000", "074511.671000", "074516.6710