{"AcquisitionMatrixPE": 96, "AcquisitionNumber": 1, "AcquisitionTime": "17:28:17.600000", "BaseResolution": 96, "BodyPartExamined": "BRAIN", "ConsistencyInfo": "N4_VD11D_LATEST_20110129", "ConversionSoftware": "dcm2niix", "ConversionSoftwareVersion": "v1.0.20210317", "DeviceSerialNumber": "45239", "DwellTime": 9.2e-06, "EchoNumber": 2, "EchoTime": 0.00738, "EchoTime1": 0.00492, "EchoTime2": 0.00738, "FlipAngle": 50, "ImageOrientationPatientDICOM": [0.999916, 0.00999398, 0.00825644, -0.00433514, 0.85803, -0.513582], "ImageType": ["ORIGINAL", "PRIMARY", "P", "ND", "PHASE"], "ImagingFrequency": 123.193, "InPlanePhaseEncodingDirectionDICOM": "COL", "InstitutionAddress": "E 24th St. 100,Austin,Southmiddle,US,78712", "InstitutionName": "Univ of Texas at Austin", "InstitutionalDepartmentName": "IRC", "MRAcquisitionType": "2D", "MagneticFieldStrength": 3, "Manufacturer": "Siemens", "ManufacturersModelName": "Skyra", "Modality": "MR", "MultibandAccelerationFactor": 2, "PartialFourier": 1, "PatientPosition": "HFS", "PercentPhaseFOV": 100, "PercentSampling": 100, "PhaseEncodingDirection": "j-", "PhaseEncodingSteps": 96, "PhaseResolution": 1, "PixelBandwidth": 565, "ProcedureStepDescription": "Poldrack2^self-scanning", "ProtocolName": "gre_field_mapping", "PulseSequenceDetails": "%SiemensSeq%\\gre_field_mapping", "ReceiveCoilActiveElements": "HEA;HEP", "ReceiveCoilName": "Head_32", "ReconMatrixPE": 96, "RepetitionTime": 0.731, "SAR": 0.121915, "ScanningSequence": "GR", "SequenceName": "*fm2d2r", "SequenceVariant": "SP", "SeriesDescription": "gre_field_mapping", "SeriesNumber": 13, "ShimSetting": [-2779, 8012, -15419, 165, -169, -39, 230, -106], "SliceThickness": 2, "SliceTiming": [0.35938, 0, 0.375, 0.01562, 0.39062, 0.01562, 0.39062, 0.03125, 0.40625, 0.04688, 0.42188, 0.04688, 0.42188, 0.0625, 0.4375, 0.07812, 0.45312, 0.07812, 0.45312, 0.09375, 0.46875, 0.10938, 0.48438, 0.125, 0.5, 0.125, 0.5, 0.14062, 0.51562, 0.15625, 0.53125, 0.15625, 0.53125, 0.17188, 0.54688, 0.1875, 0.5625, 0.1875, 0.5625, 0.20312, 0.57812, 0.21875, 0.59375, 0.21875, 0.59375, 0.23438, 0.60938, 0.25, 0.625, 0.26562, 0.64062, 0.26562, 0.64062, 0.28125, 0.65625, 0.29688, 0.67188, 0.29688, 0.67188, 0.3125, 0.6875, 0.32812, 0.70312, 0.32812, 0.70312, 0.34375, 0.71875, 0.35938], "SoftwareVersions": "syngo MR D11", "SpacingBetweenSlices": 2.4, "StationName": "AWP45239", "TxRefAmp": 350.098, "dcmmeta_affine": [[-2.395632028579712, -0.0103862714022398, 0.02932077646255493, 114.07849884033203], [-0.02394391968846321, 2.0556960105895996, -1.2324066162109375, -68.59466552734375], [0.01978105865418911, 1.2304564714431763, 2.0591964721679688, -74.92118835449219], [0.0, 0.0, 0.0, 1.0]], "dcmmeta_reorient_transform": [[0.0, -1.0, 0.0, 95.0], [1.0, 0.0, 0.0, 0.0], [0.0, 0.0, -1.0, 67.0], [0.0, 0.0, 0.0, 1.0]], "dcmmeta_shape": [96, 96, 68], "dcmmeta_slice_dim": 2, "dcmmeta_version": 0.6, "global": {"const": {"AcquisitionMatrix": [96, 0, 0, 96], "AcquisitionNumber": 1, "AngioFlag": "N", "BitsAllocated": 16, "BitsStored": 12, "BodyPartExamined": "BRAIN", "Columns": 96, "EchoNumbers": 2, "EchoTime": 7.38, "EchoTrainLength": 0, "FlipAngle": 50.0, "HighBit": 11, "ImageOrientationPatient": [0.99991597219065, 0.00999398398281, 0.00825644246444, -0.0043351396346, 0.85802964395436, -0.5135818694813], "ImageType": ["ORIGINAL", "PRIMARY", "P", "ND"], "ImagedNucleus": "1H", "ImagingFrequency": 123.193472, "InPlanePhaseEncodingDirection": "COL", "MRAcquisitionType": "2D", "MagneticFieldStrength": 3.0, "Manufacturer": "SIEMENS", "ManufacturerModelName": "Skyra", "Modality": "MR", "NumberOfAverages": 1.0, "NumberOfPhaseEncodingSteps": 96, "PercentPhaseFieldOfView": 100.0, "PercentSampling": 100.0, "PerformedProcedureStepStartTime": "170338.906000", "PhotometricInterpretation": "MONOCHROME2", "PixelBandwidth": 565.0, "PixelRepresentation": 0, "PixelSpacing": [2.3958332538605, 2.3958332538605], "ProtocolName": "gre_field_mapping", "RepetitionTime": 731.0, "RescaleIntercept": -4096.0, "RescaleSlope": 2.0, "RescaleType": "US", "Rows": 96, "SAR": 0.12191499337612, "SamplesPerPixel": 1, "ScanningSequence": "GR", "SequenceName": "*fm2d2r", "SequenceVariant": "SP", "SeriesDescription": "gre_field_mapping", "SeriesNumber": 13, "SeriesTime": "173505.828000", "SliceThickness": 2.0, "SoftwareVersions": "syngo MR D11", "SpacingBetweenSlices": 2.4, "SpecificCharacterSet": "ISO_IR 100", "StudyID": "1", "StudyTime": "170338.875000", "TransmitCoilName": "Body", "VariableFlipAngleFlag": "N", "WindowCenterWidthExplanation": "Algo1", "dBdt": 0.0}, "slices": {"AcquisitionTime": ["172817.600000", "172817.232500", "172817.610000", "172817.245000", "172817.620000", "172817.255000", "172817.632500", "172817.265000", "172817.642500", "172817.277500", "172817.652500", "172817.287500", "172817.662500", "172817.297500", "172817.675000", "172817.310000", "172817.685000", "172817.320000", "172817.695000", "172817.330000", "172817.707500", "172817.340000", "172817.717500", "172817.352500", "172817.727500", "172817.362500", "172817.740000", "172817.372500", "172817.750000", "172817.385000", "172817.760000", "172817.395000", "172817.770000", "172817.405000", "172817.782500", "172817.417500", "172817.792500", "172817.427500", "172817.802500", "172817.437500", "172817.815000", "172817.447500", "172817.825000", "172817.460000", "172817.835000", "172817.470000", "172817.847500", "172817.480000", "172817.857500", "172817.492500", "172817.867500", "172817.502500", "172817.877500", "172817.512500", "172817.890000", "172817.525000", "172817.900000", "172817.535000", "172817.910000", "172817.545000", "172817.922500", "172817.555000", "172817.932500", "172817.567500", "172817.942500", "172817.577500", "172817.955000", "172817.587500"], "ContentTime": ["173505.921000", "173505.828000", "173505.921000", "173505.843000", "173505.921000", "173505.843000", "173505.921000", "173505.859000", "173505.921000", "173505.859000", "173505.921000", "173505.859000", "173505.921000", "173505.859000", "173505.937000", "173505.859000", "173505.937000", "173505.859000", "173505.937000", "173505.859000", "173505.953000", "173505.859000", "173505.953000", "173505.859000", "173505.953000", "173505.875000", "173505.953000", "173505.875000", "173505.953000", "173505.875000", "173505.953000", "173505.875000", "173505.953000", "173505.875000", "173505.953000", "173505.875000", "173505.968000", "173505.875000", "173505.968000", "173505.875000", "173505.968000", "173505.890000", "173505.968000", "173505.890000", "173505.968000", "173505.890000", "173505.968000", "173505.890000", "173505.984000", "173505.890000", "173505.984000", "173505.890000", "173505.984000", "173505.890000", "173505.984000", "173505.890000", "173505.984000", "173505.906000", "173505.984000", "173505.906000", "173506.000000", "173505.906000", "173506.000000", "173505.906000", "173506.031000", "173505.906000", "173506.031000", "173505.921000"], "CsaImage.ICE_Dims": ["X_2_1_1_1_1_1_35_1_1_1_1_248", "X_2_1_1_1_1_1_1_1_1_2_1_248", "X_2_1_1_1_1_1_36_1_1_3_1_248", "X_2_1_1_1_1_1_2_1_1_4_1_248", "X_2_1_1_1_1_1_37_1_1_5_1_248", "X_2_1_1_1_1_1_3_1_1_6_1_248", "X_2_1_1_1_1_1_38_1_1_7_1_248", "X_2_1_1_1_1_1_4_1_1_8_1_248", "X_2_1_1_1_1_1_39_1_1_9_1_248", "X_2_1_1_1_1_1_5_1_1_10_1_248", "X_2_1_1_1_1_1_40_1_1_11_1_248", "X_2_1_1_1_1_1_6_1_1_12_1_248", "X_2_1_1_1_1_1_41_1_1_13_1_248", "X_2_1_1_1_1_1_7_1_1_14_1_248", "X_2_1_1_1_1_1_42_1_1_15_1_248", "X_2_1_1_1_1_1_8_1_1_16_1_248", "X_2_1_1_1_1_1_43_1_1_17_1_248", "X_2_1_1_1_1_1_9_1_1_18_1_248", "X_2_1_1_1_1_1_44_1_1_19_1_248", "X_2_1_1_1_1_1_10_1_1_20_1_248", "X_2_1_1_1_1_1_45_1_1_21_1_248", "X_2_1_1_1_1_1_11_1_1_22_1_248", "X_2_1_1_1_1_1_46_1_1_23_1_248", "X_2_1_1_1_1_1_12_1_1_24_1_248", "X_2_1_1_1_1_1_47_1_1_25_1_248", "X_2_1_1_1_1_1_13_1_1_26_1_248", "X_2_1_1_1_1_1_48_1_1_27_1_248", "X_2_1_1_1_1_1_14_1_1_28_1_248", "X_2_1_1_1_1_1_49_1_1_29_1_248", "X_2_1_1_1_1_1_15_1_1_30_1_248", "X_2_1_1_1_1_1_50_1_1_31_1_248", "X_2_1_1_1_1_1_16_1_1_32_1_248", "X_2_1_1_1_1_1_51_1_1_33_1_248", "X_2_1_1_1_1_1_17_1_1_34_1_248", "X_2_1_1_1_1_1_52_1_1_35_1_248", "X_2_1_1_1_1_1_18_1_1_36_1_248", "X_2_1_1_1_1_1_53_1_1_37_1_248", "X_2_1_1_1_1_1_19_1_1_38_1_248", "X_2_1_1_1_1_1_54_1_1_39_1_248", "X_2_1_1_1_1_1_20_1_1_40_1_248", "X_2_1_1_1_1_1_55_1_1_41_1_248", "X_2_1_1_1_1_1_21_1_1_42_1_248", "X_2_1_1_1_1_1_56_1_1_43_1_248", "X_2_1_1_1_1_1_22_1_1_44_1_248", "X_2_1_1_1_1_1_57_1_1_45_1_248", "X_2_1_1_1_1_1_23_1_1_46_1_248", "X_2_1_1_1_1_1_58_1_1_47_1_248", "X_2_1_1_1_1_1_24_1_1_48_1_248", "X_2_1_1_1_1_1_59_1_1_49_1_248", "X_2_1_1_1_1_1_25_1_1_50_1_248", "X_2_1_1_1_1_1_60_1_1_51_1_248", "X_2_1_1_1_1_1_26_1_1_52_1_248", "X_2_1_1_1_1_1_61_1_1_53_1_248", "X_2_1_1_1_1_1_27_1_1_54_1_248", "X_2_1_1_1_1_1_62_1_1_55_1_248", "X_2_1_1_1_1_1_28_1_1_56_1_248", "X_2_1_1_1_1_1_63_1_1_57_1_248", "X_2_1_1_1_1_1_29_1_1_58_1_248", "X_2_1_1_1_1_1_64_1_1_59_1_248", "X_2_1_1_1_1_1_30_1_1_60_1_248", "X_2_1_1_1_1_1_65_1_1_61_1_248", "X_2_1_1_1_1_1_31_1_1_62_1_248", "X_2_1_1_1_1_1_66_1_1_63_1_248", "X_2_1_1_1_1_1_32_1_1_64_1_248", "X_2_1_1_1_1_1_67_1_1_65_1_248", "X_2_1_1_1_1_1_33_1_1_66_1_248", "X_2_1_1_1_1_1_68_1_1_67_1_248", "X_2_1_1_1_1_1_34_1_1_68_1_248"], "CsaImage.ProtocolSliceNumber": [0, 1, 2, 3, 4, 5, 6, 7, 8, 9, 10, 11, 12, 13, 14, 15, 16, 17, 18, 19, 20, 21, 22, 23, 24, 25, 26, 27, 28, 29, 30, 31, 32, 33, 34, 35, 36, 37, 38, 39, 40, 41, 42, 43, 44, 45, 46, 47, 48, 49, 50, 51, 52, 53, 54, 55, 56, 57, 58, 59, 60, 61, 62, 63, 64, 65, 66, 67], "CsaImage.SlicePosition_PCS": [[-113.09180103, -126.69647412, 41.97180672], [-113.12112187, -125.46406751, 44.03100796], [-113.1504427, -124.23166089, 46.09021015], [-113.17976342, -122.99925428, 48.14941234], [-113.20908425, -121.76684575, 50.20861454], [-113.23840509, -120.53443914, 52.26781673], [-113.26772593, -119.30203252, 54.32701869], [-113.29704664, -118.0696259, 56.38622088], [-113.32636748, -116.83721929, 58.44542293], [-113.35568832, -115.60481172, 60.50462503], [-113.38500903, -114.37240415, 62.56382723], [-113.41432987, -113.13999753, 64.62302895], [-113.44365071, -111.90758996, 66.68223114], [-113.47297154, -110.67518335, 68.74143333], [-113.50229226, -109.44277578, 70.80063553], [-113.53161309, -108.21036916, 72.85983772], [-113.56093387, -106.97796207, 74.91903992], [-113.59025471, -105.74555497, 76.97824211], [-113.61957548, -104.51314836, 79.0374443], [-113.64889632, -103.28074103, 81.0966465], [-113.6782171, -102.04833417, 83.15584869], [-113.70753787, -100.81592708, 85.21505089], [-113.73685871, -99.58352004, 87.27425117], [-113.76617948, -98.35111301, 89.33345337], [-113.79550032, -97.11870604, 91.39265747], [-113.8248211, -95.88629894, 93.45185776], [-113.85414193, -94.65389209, 95.51106186], [-113.88346271, -93.421485, 97.57026215], [-113.91278349, -92.1890779, 99.62946625], [-113.94210432, -90.95667081, 101.68866653], [-113.9714251, -89.72426419, 103.74787064], [-114.00074593, -88.49185662, 105.80707092], [-114.03006671, -87.25945001, 107.86627121], [-114.05938752, -86.02704244, 109.92547531], [-114.08870832, -84.79463582, 111.9846756], [-114.11802913, -83.56222921, 114.0438797], [-114.14734994, -82.32982259, 116.10307999], [-114.17667074, -81.09741407, 118.16228409], [-114.20599155, -79.86500745, 120.22148437], [-114.23531233, -78.63260083, 122.28068848], [-114.26463313, -77.40019422, 124.33989258], [-114.29395394, -76.16778569, 126.39908905], [-114.32327474, -74.93537908, 128.45829315], [-114.35259555, -73.70297246, 130.51749725], [-114.38191635, -72.47056585, 132.57670135], [-114.41123715, -71.23815923, 134.63589783], [-114.44055795, -70.00575071, 136.69510193], [-114.46987875, -68.77334409, 138.75430603], [-114.49919955, -67.54093747, 140.8135025], [-114.52852036, -66.30853086, 142.8727066], [-114.55784116, -65.07612424, 144.9319107], [-114.58716196, -63.84371762, 146.99111481], [-114.61648276, -62.61131101, 149.05031128], [-114.64580357, -61.37890058, 151.10951538], [-114.67512436, -60.14649396, 153.16871948], [-114.70444517, -58.91408735, 155.22792358], [-114.73376597, -57.68168073, 157.28712006], [-114.76308678, -56.44927411, 159.34632416], [-114.79240758, -55.2168675, 161.40552826], [-114.82172839, -53.98446088, 163.46473236], [-114.85104917, -52.75205426, 165.52392883], [-114.88036997, -51.51964765, 167.58313293], [-114.90969078, -50.28723722, 169.64233704], [-114.93901159, -49.0548306, 171.70154114], [-114.96833239, -47.82242398, 173.76073761], [-114.99765317, -46.59001737, 175.81994171], [-115.026974, -45.35761075, 177.87914581], [-115.05629478, -44.12520414, 179.93834228]], "CsaImage.TimeAfterStart": [1.1, 0.735, 1.11, 0.745, 1.1225, 0.755, 1.1325, 0.7675, 1.1425, 0.7775, 1.155, 0.7875, 1.165, 0.8, 1.175, 0.81, 1.185, 0.82, 1.1975, 0.8325, 1.2075, 0.8425, 1.2175, 0.8525, 1.23, 0.8625, 1.24, 0.875, 1.25, 0.885, 1.2625, 0.895, 1.2725, 0.9075, 1.2825, 0.9175, 1.2925, 0.9275, 1.305, 0.94, 1.315, 0.95, 1.325, 0.96, 1.3375, 0.97, 1.3475, 0.9825, 1.3575, 0.9925, 1.37, 1.0025, 1.38, 1.015, 1.39, 1.025, 1.4, 1.035, 1.4125, 1.0475, 1.4225, 1.0575, 1.4325, 1.0675, 1.445, 1.0775, 1.455, 1.09], "ImagePositionPatient": [[-113.09180102985, -126.69647412492, 41.971806716018], [-113.12112186592, -125.46406750871, 44.031007956557], [-113.15044270199, -124.23166089249, 46.090210150771], [-113.17976341885, -122.99925427628, 48.149412344985], [-113.20908425491, -121.76684575272, 50.208614539199], [-113.23840509098, -120.53443913651, 52.267816733413], [-113.26772592705, -119.3020325203, 54.327018689208], [-113.29704664391, -118.06962590409, 56.386220883422], [-113.32636747997, -116.83721928788, 58.445422928624], [-113.35568831604, -115.60481171799, 60.504625033431], [-113.3850090329, -114.37240414811, 62.563827227645], [-113.41432986897, -113.1399975319, 64.623028945022], [-113.44365070503, -111.90758996201, 66.682231139236], [-113.4729715411, -110.6751833458, 68.74143333345], [-113.50229225796, -109.44277577592, 70.800635527663], [-113.53161309403, -108.21036915971, 72.859837721877], [-113.56093387049, -106.97796206666, 74.919039916091], [-113.59025470656, -105.74555497361, 76.978242110305], [-113.61957548302, -104.5131483574, 79.037444304519], [-113.64889631909, -103.28074102593, 81.096646498733], [-113.67821709555, -102.0483341713, 83.155848692947], [-113.70753787201, -100.81592707825, 85.215050887161], [-113.73685870808, -99.583520044811, 87.274251174026], [-113.76617948454, -98.351113011368, 89.33345336824], [-113.79550032061, -97.118706037529, 91.392657469802], [-113.82482109707, -95.886298944481, 93.451857756667], [-113.85414193314, -94.653892089851, 95.51106185823], [-113.8834627096, -93.421484996803, 97.570262145095], [-113.91278348606, -92.189077903755, 99.629466246658], [-113.94210432213, -90.956670810707, 101.68866653352], [-113.97142509859, -89.724264194496, 103.74787063509], [-114.00074593466, -88.491856624611, 105.80707092195], [-114.03006671112, -87.2594500084, 107.86627120882], [-114.05938751739, -86.027042438515, 109.92547531038], [-114.08870832365, -84.794635822304, 111.98467559724], [-114.11802912992, -83.562229206093, 114.04387969881], [-114.14734993618, -82.329822589882, 116.10307998567], [-114.17667074245, -81.097414066322, 118.16228408723], [-114.20599154871, -79.865007450111, 120.2214843741], [-114.23531232517, -78.6326008339, 122.28068847566], [-114.26463313144, -77.400194217689, 124.33989257722], [-114.2939539377, -76.16778569413, 126.39908904939], [-114.32327474397, -74.935379077919, 128.45829315095], [-114.35259555023, -73.702972461708, 130.51749725252], [-114.38191634905, -72.470565845497, 132.57670135408], [-114.41123714786, -71.238159229286, 134.63589782625], [-114.4405579504, -70.005750705727, 136.69510192781], [-114.46987875294, -68.773344089516, 138.75430602937], [-114.49919955408, -67.540937473305, 140.81350250154], [-114.52852035802, -66.308530857094, 142.8727066031], [-114.55784115683, -65.076124240883, 144.93191070467], [-114.5871619631, -63.843717624672, 146.99111480623], [-114.61648276191, -62.611311008461, 149.0503112784], [-114.64580356818, -61.378900577553, 151.10951537996], [-114.67512435954, -60.146493961342, 153.16871948152], [-114.70444516581, -58.914087345131, 155.22792358308], [-114.73376597207, -57.68168072892, 157.28712005525], [-114.76308677834, -56.449274112709, 159.34632415681], [-114.7924075846, -55.216867496498, 161.40552825838], [-114.82172839087, -53.984460880287, 163.46473235994], [-114.85104916733, -52.752054264076, 165.52392883211], [-114.88036997359, -51.519647647865, 167.58313293367], [-114.90969077986, -50.287237216957, 169.64233703523], [-114.93901158612, -49.054830600746, 171.70154113679], [-114.96833239239, -47.822423984535, 173.76073760896], [-114.99765316885, -46.590017368324, 175.81994171052], [-115.02697400492, -45.357610752113, 177.87914581209], [-115.05629478138, -44.125204135902, 179.93834228426]], "InstanceCreationTime": ["173505.921000", "173505.828000", "173505.921000", "173505.843000", "173505.921000", "173505.843000", "173505.921000", "173505.859000", "173505.921000", "173505.859000", "173505.921000", "173505.859000", "173505.921000", "173505.859000", "173505.937000", "173505.859000", "173505.937000", "173505.859000", "173505.937000", "173505.859000", "173505.953000", "173505.859000", "173505.953000", "173505.859000", "173505.953000", "173505.875000", "173505.953000", "173505.875000", "173505.953000", "173505.875000", "173505.953000", "173505.875000", "173505.953000", "173505.875000", "173505.953000", "173505.875000", "173505.968000", "173505.875000", "173505.968000", "173505.875000", "173505.968000", "173505.890000", "173505.968000", "173505.890000", "173505.968000", "173505.890000", "173505.968000", "173505.890000", "173505.984000", "173505.890000", "173505.984000", "173505.890000", "173505.984000", "173505.890000", "173505.984000", "173505.890000", "173505.984000", "173505.906000", "173505.984000", "173505.906000", "173506.000000", "173505.906000", "173506.000000", "173505.906000", "173506.031000", "173505.906000", "173506.031000", "173505.921000"], "InstanceNumber": [1, 2, 3, 4, 5, 6, 7, 8, 9, 10, 11, 12, 13, 14, 15, 16, 17, 18, 19, 20, 21, 22, 23, 24, 25, 26, 27, 28, 29, 30, 31, 32, 33, 34, 35, 36, 37, 38, 39, 40, 41, 42, 43, 44, 45, 46, 47, 48, 49, 50, 51, 52, 53, 54, 55, 56, 57, 58, 59, 60, 61, 62, 63, 64, 65, 66, 67, 68], "LargestImagePixelValue": [4094, 4094, 4092, 4092, 4094, 4092, 4093, 4094, 4092, 4093, 4089, 4094, 4093, 4094, 4094, 4092, 4092, 4093, 4094, 4093, 4094, 4094, 4092, 4089, 4092, 4093, 4093, 4094, 4093, 4090, 4094, 4094, 4094, 4093, 4093, 4093, 4094, 4090, 4093, 4092, 4094, 4094, 4091, 4094, 4092, 4093, 4094, 4094, 4093, 4090, 4093, 4093, 4093, 4094, 4094, 4094, 4094, 4091, 4094, 4094, 4094, 4094, 4094, 4094, 4094, 4094, 4094, 4094], "SliceLocation": [-27.665520201737, -25.265521133373, -22.865521246755, -20.465521361594, -18.065520495548, -15.665520608931, -13.265520926877, -10.865521041716, -8.4655212829505, -6.0655209833298, -3.6655206084543, -1.2655211309637, 1.1344792453682, 3.5344791319855, 5.934479506861, 8.3344793934784, 10.734479524225, 13.134479655699, 15.534479541589, 17.934479795492, 20.33447980381, 22.734479934556, 25.134478398917, 27.534478499056, 29.934480205823, 32.334478700063, 34.734480345615, 37.134478839855, 39.534480607108, 41.934479102076, 44.334480624472, 46.734479364297, 49.134477613679, 51.534479626154, 53.9344778759, 56.33447939866, 58.734477648407, 61.134480150596, 63.534478400343, 65.934479922738, 68.334481445498, 70.73447740166, 73.13447892442, 75.53448044718, 77.93448196985, 80.334476946491, 82.734479448635, 85.134480971349, 87.53447594802, 89.934477470751, 92.33447899342, 94.73448051618, 97.134475492822, 99.53447897444, 101.93448049702, 104.33448201978, 106.73447699651, 109.13447851927, 111.53448004203, 113.93448156479, 116.33447654116, 118.73447806392, 121.13448154554, 123.5344830683, 125.93447804503, 128.33447956743, 130.73448109055, 133.13447606692], "SmallestImagePixelValue": [1, 0, 0, 1, 1, 0, 1, 0, 1, 0, 1, 4, 0, 0, 2, 0, 2, 0, 0, 0, 7, 0, 0, 1, 3, 8, 1, 8, 1, 7, 5, 0, 2, 3, 7, 0, 3, 1, 3, 5, 0, 0, 0, 3, 1, 0, 0, 0, 1, 2, 1, 3, 1, 0, 0, 1, 1, 1, 0, 1, 0, 0, 1, 0, 0, 1, 0, 0], "WindowCenter": [-322.0, -294.0, -414.0, -394.0, -408.0, -394.0, -428.0, -434.0, -370.0, -394.0, -502.0, -420.0, -532.0, -504.0, -502.0, -484.0, -468.0, -444.0, -420.0, -362.0, -334.0, -314.0, -290.0, -258.0, -238.0, -236.0, -226.0, -238.0, -226.0, -204.0, -210.0, -226.0, -218.0, -188.0, -168.0, -166.0, -176.0, -190.0, -192.0, -204.0, -212.0, -244.0, -266.0, -280.0, -246.0, -248.0, -246.0, -216.0, -250.0, -254.0, -300.0, -282.0, -260.0, -246.0, -276.0, -290.0, -286.0, -320.0, -378.0, -416.0, -452.0, -448.0, -476.0, -544.0, -510.0, -502.0, -510.0, -500.0], "WindowWidth": [6246.0, 6158.0, 6088.0, 6092.0, 6020.0, 5862.0, 5706.0, 5486.0, 5584.0, 5676.0, 4894.0, 5510.0, 4838.0, 4800.0, 4710.0, 4698.0, 4650.0, 4600.0, 4604.0, 4566.0, 4538.0, 4472.0, 4422.0, 4348.0, 4322.0, 4262.0, 4218.0, 4238.0, 4226.0, 4236.0, 4238.0, 4292.0, 4302.0, 4330.0, 4362.0, 4392.0, 4422.0, 4472.0, 4476.0, 4480.0, 4502.0, 4506.0, 4500.0, 4524.0, 4506.0, 4508.0, 4520.0, 4522.0, 4546.0, 4520.0, 4554.0, 4564.0, 4600.0, 4606.0, 4636.0, 4662.0, 4706.0, 4732.0, 4846.0, 4894.0, 4946.0, 4962.0, 4978.0, 5044.0, 5064.0, 5056.0, 5150.0, 5150.0]}}}