{"AcquisitionMatrixPE": 96, "AcquisitionNumber": 1, "AcquisitionTime": "07:41:19.102500", "BaseResolution": 96, "BodyPartExamined": "BRAIN", "ConsistencyInfo": "N4_VD11D_LATEST_20110129", "ConversionSoftware": "dcm2niix", "ConversionSoftwareVersion": "v1.0.20210317", "DeviceSerialNumber": "45239", "DwellTime": 9.2e-06, "EchoNumber": 2, "EchoTime": 0.00738, "EchoTime1": 0.00492, "EchoTime2": 0.00738, "FlipAngle": 50, "ImageOrientationPatientDICOM": [0.99919, 0.00291125, 0.0401243, 0.0200115, 0.829262, -0.558501], "ImageType": ["ORIGINAL", "PRIMARY", "P", "ND", "PHASE"], "ImagingFrequency": 123.193, "InPlanePhaseEncodingDirectionDICOM": "COL", "InstitutionAddress": "E 24th St. 100,Austin,Southmiddle,US,78712", "InstitutionName": "Univ of Texas at Austin", "InstitutionalDepartmentName": "IRC", "MRAcquisitionType": "2D", "MagneticFieldStrength": 3, "Manufacturer": "Siemens", "ManufacturersModelName": "Skyra", "Modality": "MR", "PartialFourier": 1, "PatientPosition": "HFS", "PercentPhaseFOV": 100, "PercentSampling": 100, "PhaseEncodingDirection": "j-", "PhaseEncodingSteps": 96, "PhaseResolution": 1, "PixelBandwidth": 565, "ProcedureStepDescription": "Poldrack2^self-scanning", "ProtocolName": "gre_field_mapping", "PulseSequenceDetails": "%SiemensSeq%\\gre_field_mapping", "ReceiveCoilActiveElements": "HEA;HEP", "ReceiveCoilName": "Head_32", "ReconMatrixPE": 96, "RepetitionTime": 0.731, "SAR": 0.121432, "ScanningSequence": "GR", "SequenceName": "*fm2d2r", "SequenceVariant": "SP", "SeriesDescription": "gre_field_mapping", "SeriesNumber": 11, "ShimSetting": [-2785, 8059, -15450, 130, -240, 59, 241, -71], "SliceThickness": 2, "SliceTiming": [0.36719, 0, 0.38281, 0.01562, 0.39062, 0.02344, 0.39844, 0.03906, 0.41406, 0.04688, 0.42188, 0.05469, 0.42969, 0.07031, 0.44531, 0.07812, 0.45312, 0.09375, 0.46875, 0.10156, 0.47656, 0.10938, 0.48438, 0.11719, 0.5, 0.13281, 0.50781, 0.14062, 0.52344, 0.15625, 0.53125, 0.16406, 0.53906, 0.17188, 0.54688, 0.1875, 0.5625, 0.19531, 0.57031, 0.21094, 0.58594, 0.21875, 0.59375, 0.22656, 0.60938, 0.24219, 0.61719, 0.25, 0.625, 0.25781, 0.64062, 0.27344, 0.64844, 0.28125, 0.65625, 0.29688, 0.67188, 0.30469, 0.67969, 0.3125, 0.6875, 0.32812, 0.70312, 0.33594, 0.71094, 0.35156, 0.72656, 0.35938], "SoftwareVersions": "syngo MR D11", "SpacingBetweenSlices": 2.4, "StationName": "AWP45239", "TxRefAmp": 345.021, "dcmmeta_affine": [[-2.3938937187194824, 0.047944217920303345, 0.08375883102416992, 112.91357421875], [-0.0069748652167618275, 1.9867737293243408, -1.3412437438964844, -66.32786560058594], [0.09613116085529327, 1.3380763530731201, 1.9884796142578125, -98.87456512451172], [0.0, 0.0, 0.0, 1.0]], "dcmmeta_reorient_transform": [[0.0, -1.0, 0.0, 95.0], [1.0, 0.0, 0.0, 0.0], [0.0, 0.0, -1.0, 67.0], [0.0, 0.0, 0.0, 1.0]], "dcmmeta_shape": [96, 96, 68], "dcmmeta_slice_dim": 2, "dcmmeta_version": 0.6, "global": {"const": {"AcquisitionMatrix": [96, 0, 0, 96], "AcquisitionNumber": 1, "AngioFlag": "N", "BitsAllocated": 16, "BitsStored": 12, "BodyPartExamined": "BRAIN", "Columns": 96, "EchoNumbers": 2, "EchoTime": 7.38, "EchoTrainLength": 0, "FlipAngle": 50.0, "HighBit": 11, "ImageOrientationPatient": [0.99919045440022, 0.00291124810884, 0.04012431270352, 0.02001149967689, 0.82926211722997, -0.5585014599873], "ImageType": ["ORIGINAL", "PRIMARY", "P", "ND"], "ImagedNucleus": "1H", "ImagingFrequency": 123.193397, "InPlanePhaseEncodingDirection": "COL", "MRAcquisitionType": "2D", "MagneticFieldStrength": 3.0, "Manufacturer": "SIEMENS", "ManufacturerModelName": "Skyra", "Modality": "MR", "NumberOfAverages": 1.0, "NumberOfPhaseEncodingSteps": 96, "PercentPhaseFieldOfView": 100.0, "PercentSampling": 100.0, "PerformedProcedureStepStartTime": "070716.328000", "PhotometricInterpretation": "MONOCHROME2", "PixelBandwidth": 565.0, "PixelRepresentation": 0, "PixelSpacing": [2.3958332538605, 2.3958332538605], "ProtocolName": "gre_field_mapping", "RepetitionTime": 731.0, "RescaleIntercept": -4096.0, "RescaleSlope": 2.0, "RescaleType": "US", "Rows": 96, "SAR": 0.12143186403902, "SamplesPerPixel": 1, "ScanningSequence": "GR", "SequenceName": "*fm2d2r", "SequenceVariant": "SP", "SeriesDescription": "gre_field_mapping", "SeriesNumber": 11, "SeriesTime": "074340.687000", "SliceThickness": 2.0, "SoftwareVersions": "syngo MR D11", "SpacingBetweenSlices": 2.4, "SpecificCharacterSet": "ISO_IR 100", "StudyID": "1", "StudyTime": "070716.281000", "TransmitCoilName": "Body", "VariableFlipAngleFlag": "N", "WindowCenterWidthExplanation": "Algo1", "dBdt": 0.0}, "slices": {"AcquisitionTime": ["074119.102500", "074118.737500", "074119.115000", "074118.747500", "074119.125000", "074118.760000", "074119.135000", "074118.770000", "074119.147500", "074118.780000", "074119.157500", "074118.792500", "074119.167500", "074118.802500", "074119.177500", "074118.812500", "074119.190000", "074118.825000", "074119.200000", "074118.835000", "074119.210000", "074118.845000", "074119.222500", "074118.855000", "074119.232500", "074118.867500", "074119.242500", "074118.877500", "074119.255000", "074118.887500", "074119.265000", "074118.900000", "074119.275000", "074118.910000", "074119.285000", "074118.920000", "074119.297500", "074118.932500", "074119.307500", "074118.942500", "074119.317500", "074118.952500", "074119.330000", "074118.962500", "074119.340000", "074118.975000", "074119.350000", "074118.985000", "074119.362500", "074118.995000", "074119.372500", "074119.007500", "074119.382500", "074119.017500", "074119.392500", "074119.027500", "074119.405000", "074119.040000", "074119.415000", "074119.050000", "074119.425000", "074119.060000", "074119.437500", "074119.070000", "074119.447500", "074119.082500", "074119.457500", "074119.092500"], "ContentTime": ["074340.765000", "074340.687000", "074340.765000", "074340.687000", "074340.765000", "074340.687000", "074340.781000", "074340.687000", "074340.781000", "074340.687000", "074340.781000", "074340.703000", "074340.781000", "074340.703000", "074340.781000", "074340.703000", "074340.781000", "074340.703000", "074340.781000", "074340.703000", "074340.781000", "074340.703000", "074340.796000", "074340.703000", "074340.796000", "074340.718000", "074340.796000", "074340.718000", "074340.796000", "074340.718000", "074340.796000", "074340.718000", "074340.796000", "074340.718000", "074340.796000", "074340.718000", "074340.796000", "074340.734000", "074340.796000", "074340.734000", "074340.812000", "074340.734000", "074340.812000", "074340.734000", "074340.812000", "074340.734000", "074340.812000", "074340.734000", "074340.812000", "074340.734000", "074340.828000", "074340.750000", "074340.828000", "074340.750000", "074340.828000", "074340.750000", "074340.828000", "074340.750000", "074340.828000", "074340.750000", "074340.828000", "074340.750000", "074340.843000", "074340.765000", "074340.843000", "074340.765000", "074340.843000", "074340.765000"], "CsaImage.GSWDDataType": ["predicted", "predicted", "predicted", "predicted", "predicted", "predicted", "predicted", "predicted", "predicted", "predicted", "predicted", "predicted", "predicted", "predicted", "predicted", "predicted", "predicted", "predicted", "predicted", "predicted", "predicted", "predicted", "predicted", "predicted", "predicted", "predicted", "predicted", "predicted", "predicted", "predicted", "predicted", "predicted", "measured", "predicted", "measured", "predicted", "measured", "predicted", "measured", "predicted", "measured", "predicted", "measured", "predicted", "measured", "predicted", "measured", "predicted", "measured", "predicted", "measured", "predicted", "measured", "predicted", "measured", "predicted", "measured", "predicted", "measured", "predicted", "measured", "predicted", "measured", "predicted", "measured", "predicted", "measured", "predicted"], "CsaImage.ICE_Dims": ["X_2_1_1_1_1_1_35_1_1_1_1_489", "X_2_1_1_1_1_1_1_1_1_2_1_489", "X_2_1_1_1_1_1_36_1_1_3_1_489", "X_2_1_1_1_1_1_2_1_1_4_1_489", "X_2_1_1_1_1_1_37_1_1_5_1_489", "X_2_1_1_1_1_1_3_1_1_6_1_489", "X_2_1_1_1_1_1_38_1_1_7_1_489", "X_2_1_1_1_1_1_4_1_1_8_1_489", "X_2_1_1_1_1_1_39_1_1_9_1_489", "X_2_1_1_1_1_1_5_1_1_10_1_489", "X_2_1_1_1_1_1_40_1_1_11_1_489", "X_2_1_1_1_1_1_6_1_1_12_1_489", "X_2_1_1_1_1_1_41_1_1_13_1_489", "X_2_1_1_1_1_1_7_1_1_14_1_489", "X_2_1_1_1_1_1_42_1_1_15_1_489", "X_2_1_1_1_1_1_8_1_1_16_1_489", "X_2_1_1_1_1_1_43_1_1_17_1_489", "X_2_1_1_1_1_1_9_1_1_18_1_489", "X_2_1_1_1_1_1_44_1_1_19_1_489", "X_2_1_1_1_1_1_10_1_1_20_1_489", "X_2_1_1_1_1_1_45_1_1_21_1_489", "X_2_1_1_1_1_1_11_1_1_22_1_489", "X_2_1_1_1_1_1_46_1_1_23_1_489", "X_2_1_1_1_1_1_12_1_1_24_1_489", "X_2_1_1_1_1_1_47_1_1_25_1_489", "X_2_1_1_1_1_1_13_1_1_26_1_489", "X_2_1_1_1_1_1_48_1_1_27_1_489", "X_2_1_1_1_1_1_14_1_1_28_1_489", "X_2_1_1_1_1_1_49_1_1_29_1_489", "X_2_1_1_1_1_1_15_1_1_30_1_489", "X_2_1_1_1_1_1_50_1_1_31_1_489", "X_2_1_1_1_1_1_16_1_1_32_1_489", "X_2_1_1_1_1_1_51_1_1_33_1_489", "X_2_1_1_1_1_1_17_1_1_34_1_489", "X_2_1_1_1_1_1_52_1_1_35_1_489", "X_2_1_1_1_1_1_18_1_1_36_1_489", "X_2_1_1_1_1_1_53_1_1_37_1_489", "X_2_1_1_1_1_1_19_1_1_38_1_489", "X_2_1_1_1_1_1_54_1_1_39_1_489", "X_2_1_1_1_1_1_20_1_1_40_1_489", "X_2_1_1_1_1_1_55_1_1_41_1_489", "X_2_1_1_1_1_1_21_1_1_42_1_489", "X_2_1_1_1_1_1_56_1_1_43_1_489", "X_2_1_1_1_1_1_22_1_1_44_1_489", "X_2_1_1_1_1_1_57_1_1_45_1_489", "X_2_1_1_1_1_1_23_1_1_46_1_489", "X_2_1_1_1_1_1_58_1_1_47_1_489", "X_2_1_1_1_1_1_24_1_1_48_1_489", "X_2_1_1_1_1_1_59_1_1_49_1_489", "X_2_1_1_1_1_1_25_1_1_50_1_489", "X_2_1_1_1_1_1_60_1_1_51_1_489", "X_2_1_1_1_1_1_26_1_1_52_1_489", "X_2_1_1_1_1_1_61_1_1_53_1_489", "X_2_1_1_1_1_1_27_1_1_54_1_489", "X_2_1_1_1_1_1_62_1_1_55_1_489", "X_2_1_1_1_1_1_28_1_1_56_1_489", "X_2_1_1_1_1_1_63_1_1_57_1_489", "X_2_1_1_1_1_1_29_1_1_58_1_489", "X_2_1_1_1_1_1_64_1_1_59_1_489", "X_2_1_1_1_1_1_30_1_1_60_1_489", "X_2_1_1_1_1_1_65_1_1_61_1_489", "X_2_1_1_1_1_1_31_1_1_62_1_489", "X_2_1_1_1_1_1_66_1_1_63_1_489", "X_2_1_1_1_1_1_32_1_1_64_1_489", "X_2_1_1_1_1_1_67_1_1_65_1_489", "X_2_1_1_1_1_1_33_1_1_66_1_489", "X_2_1_1_1_1_1_68_1_1_67_1_489", "X_2_1_1_1_1_1_34_1_1_68_1_489"], "CsaImage.ProtocolSliceNumber": [0, 1, 2, 3, 4, 5, 6, 7, 8, 9, 10, 11, 12, 13, 14, 15, 16, 17, 18, 19, 20, 21, 22, 23, 24, 25, 26, 27, 28, 29, 30, 31, 32, 33, 34, 35, 36, 37, 38, 39, 40, 41, 42, 43, 44, 45, 46, 47, 48, 49, 50, 51, 52, 53, 54, 55, 56, 57, 58, 59, 60, 61, 62, 63, 64, 65, 66, 67], "CsaImage.RFSWDDataType": ["predicted", "predicted", "predicted", "predicted", "predicted", "predicted", "predicted", "predicted", "predicted", "predicted", "predicted", "predicted", "predicted", "predicted", "predicted", "predicted", "predicted", "predicted", "predicted", "predicted", "predicted", "predicted", "predicted", "predicted", "predicted", "predicted", "predicted", "predicted", "measured", "predicted", "measured", "predicted", "measured", "predicted", "measured", "predicted", "measured", "predicted", "measured", "predicted", "measured", "predicted", "measured", "predicted", "measured", "predicted", "measured", "predicted", "measured", "predicted", "measured", "predicted", "measured", "predicted", "measured", "predicted", "measured", "predicted", "measured", "predicted", "measured", "predicted", "measured", "predicted", "measured", "predicted", "measured", "predicted"], "CsaImage.SlicePosition_PCS": [[-117.46827506, -122.41575415, 28.24278929], [-117.55203386, -121.0745085, 30.2312689], [-117.63579266, -119.73326285, 32.21974661], [-117.71955144, -118.3920172, 34.20822432], [-117.80331027, -117.05077345, 36.19670202], [-117.88706904, -115.7095278, 38.18517973], [-117.97082781, -114.36828215, 40.17365934], [-118.05458664, -113.0270365, 42.16213705], [-118.13834541, -111.68579085, 44.15061476], [-118.22210418, -110.3445452, 46.13909246], [-118.30586301, -109.0033005, 48.12757112], [-118.38962185, -107.66205485, 50.11604883], [-118.47338056, -106.3208092, 52.10452749], [-118.55713939, -104.97956355, 54.0930052], [-118.64089822, -103.63831837, 56.08148338], [-118.72465693, -102.2970732, 58.06996157], [-118.80841576, -100.95582755, 60.05843969], [-118.89217459, -99.61458213, 62.0469177], [-118.9759333, -98.27333672, 64.03539612], [-119.05969214, -96.93209131, 66.02387382], [-119.14345097, -95.59084592, 68.01235201], [-119.22720968, -94.24960048, 70.00083067], [-119.31096851, -92.90835507, 71.98930838], [-119.39472734, -91.5671099, 73.97778608], [-119.47848617, -90.22586424, 75.96626379], [-119.56224476, -88.88461859, 77.9547434], [-119.6460036, -87.54337294, 79.94322111], [-119.72976243, -86.20212824, 81.93169882], [-119.81352126, -84.86088259, 83.92017652], [-119.89728009, -83.51963694, 85.90865423], [-119.98103892, -82.17839129, 87.89713385], [-120.06479751, -80.83714659, 89.88561155], [-120.14855634, -79.49590094, 91.87408926], [-120.23231517, -78.15465529, 93.86256887], [-120.31607401, -76.81340964, 95.85104467], [-120.39983284, -75.47216399, 97.83952429], [-120.48359167, -74.13091834, 99.82800009], [-120.5673505, -72.78967459, 101.8164797], [-120.65110909, -71.44842894, 103.80495932], [-120.73486792, -70.10718329, 105.79343512], [-120.81862675, -68.76593764, 107.78191473], [-120.90238558, -67.42469199, 109.77039053], [-120.98614441, -66.08344634, 111.75887014], [-121.06990325, -64.74220069, 113.74734976], [-121.15366184, -63.40095694, 115.73582556], [-121.23742091, -62.05970938, 117.72430517], [-121.32117974, -60.71846564, 119.71278479], [-121.40493809, -59.37721808, 121.70126059], [-121.48869692, -58.03597434, 123.6897402], [-121.57245576, -56.69473059, 125.67821981], [-121.65621459, -55.35348303, 127.6666918], [-121.73997342, -54.01223929, 129.65517141], [-121.82373225, -52.67099173, 131.64365103], [-121.90749108, -51.32974799, 133.63213064], [-121.99124991, -49.98850043, 135.62061026], [-122.07500874, -48.64725668, 137.60908224], [-122.15876757, -47.30600913, 139.59756185], [-122.2425264, -45.96476538, 141.58604147], [-122.32628523, -44.62352164, 143.57452108], [-122.41004359, -43.28227408, 145.5630007], [-122.49380242, -41.94103034, 147.55147268], [-122.57756125, -40.59978278, 149.5399523], [-122.66132008, -39.25853903, 151.52843191], [-122.74507891, -37.91729147, 153.51691153], [-122.82883774, -36.57604773, 155.50539114], [-122.91259657, -35.23480017, 157.49387075], [-122.99635541, -33.89355643, 159.48234274], [-123.08011424, -32.55231268, 161.47082235]], "CsaImage.TimeAfterStart": [1.1, 0.735, 1.11, 0.745, 1.12, 0.755, 1.1325, 0.765, 1.1425, 0.7775, 1.1525, 0.7875, 1.165, 0.7975, 1.175, 0.81, 1.185, 0.82, 1.195, 0.83, 1.2075, 0.8425, 1.2175, 0.8525, 1.2275, 0.8625, 1.24, 0.8725, 1.25, 0.885, 1.26, 0.895, 1.2725, 0.905, 1.2825, 0.9175, 1.2925, 0.9275, 1.3025, 0.9375, 1.315, 0.95, 1.325, 0.96, 1.335, 0.97, 1.3475, 0.98, 1.3575, 0.9925, 1.3675, 1.0025, 1.38, 1.0125, 1.39, 1.025, 1.4, 1.035, 1.41, 1.045, 1.4225, 1.0575, 1.4325, 1.0675, 1.4425, 1.0775, 1.455, 1.0875], "ImagePositionPatient": [[-117.46827506161, -122.41575415197, 28.242789286966], [-117.55203386283, -121.07450850073, 30.231268901224], [-117.63579266405, -119.73326284948, 32.219746608133], [-117.71955143547, -118.39201719824, 34.208224315042], [-117.8033102665, -117.05077345434, 36.196702021952], [-117.88706903792, -115.7095278031, 38.185179728861], [-117.97082780934, -114.36828215185, 40.173659343119], [-118.05458664036, -113.02703650061, 42.162137050028], [-118.13834541178, -111.68579084936, 44.150614756937], [-118.2221041832, -110.34454519812, 46.139092463846], [-118.30586301423, -109.00330050055, 48.12757112443], [-118.38962184525, -107.6620548493, 50.116048831339], [-118.47338055706, -106.32080919805, 52.104527491922], [-118.55713938809, -104.97956354681, 54.093005198832], [-118.64089821911, -103.6383183724, 56.081483382578], [-118.72465693093, -102.29707319799, 58.069961566324], [-118.80841576195, -100.95582754675, 60.058439690466], [-118.89217459298, -99.614582133922, 62.046917695398], [-118.97593330479, -98.273336721096, 64.035396117563], [-119.05969213581, -96.932091308269, 66.023873824472], [-119.14345096684, -95.590845917794, 68.012352008219], [-119.22720967865, -94.249600482616, 70.000830668802], [-119.31096850968, -92.90835506979, 71.989308375711], [-119.3947273407, -91.567109895382, 73.977786082621], [-119.47848617173, -90.225864244137, 75.96626378953], [-119.56224476433, -88.884618592891, 77.954743403788], [-119.64600359536, -87.543372941646, 79.943221110697], [-119.72976242638, -86.202128244075, 81.931698817606], [-119.8135212574, -84.86088259283, 83.920176524515], [-119.89728008843, -83.519636941585, 85.908654231424], [-119.98103891945, -82.17839129034, 87.897133845682], [-120.06479751206, -80.837146592769, 89.885611552591], [-120.14855634308, -79.495900941524, 91.8740892595], [-120.23231517411, -78.154655290279, 93.862568873758], [-120.31607400513, -76.813409639034, 95.851044673319], [-120.39983283615, -75.472163987789, 97.839524287577], [-120.48359166718, -74.130918336544, 99.828000087137], [-120.5673504982, -72.789674592647, 101.8164797014], [-120.65110909081, -71.448428941402, 103.80495931565], [-120.73486792183, -70.107183290157, 105.79343511521], [-120.81862675286, -68.765937638912, 107.78191472947], [-120.90238558388, -67.424691987667, 109.77039052903], [-120.98614441491, -66.083446336422, 111.75887014329], [-121.06990324593, -64.742200685177, 113.74734975755], [-121.15366183854, -63.40095694128, 115.73582555711], [-121.23742090798, -62.059709382686, 117.72430517137], [-121.321179739, -60.71846563879, 119.71278478562], [-121.40493809319, -59.377218080196, 121.70126058518], [-121.48869692421, -58.0359743363, 123.68974019944], [-121.57245575524, -56.694730592403, 125.6782198137], [-121.65621458626, -55.353483033809, 127.66669179856], [-121.73997341729, -54.012239289913, 129.65517141282], [-121.82373224831, -52.670991731319, 131.64365102708], [-121.90749107933, -51.329747987423, 133.63213064134], [-121.99124991036, -49.988500428829, 135.62061025559], [-122.07500874138, -48.647256684932, 137.60908224046], [-122.15876757241, -47.306009126339, 139.59756185472], [-122.24252640343, -45.964765382442, 141.58604146897], [-122.32628523446, -44.623521638546, 143.57452108323], [-122.41004358864, -43.282274079952, 145.56300069749], [-122.49380241967, -41.941030336055, 147.55147268235], [-122.57756125069, -40.599782777462, 149.53995229661], [-122.66132008171, -39.258539033565, 151.52843191087], [-122.74507891274, -37.917291474971, 153.51691152513], [-122.82883774376, -36.576047731075, 155.50539113938], [-122.91259657479, -35.234800172481, 157.49387075364], [-122.99635540581, -33.893556428585, 159.4823427385], [-123.08011423684, -32.552312684688, 161.47082235276]], "InstanceCreationTime": ["074340.765000", "074340.687000", "074340.765000", "074340.687000", "074340.765000", "074340.687000", "074340.781000", "074340.687000", "074340.781000", "074340.687000", "074340.781000", "074340.703000", "074340.781000", "074340.703000", "074340.781000", "074340.703000", "074340.781000", "074340.703000", "074340.781000", "074340.703000", "074340.781000", "074340.703000", "074340.796000", "074340.703000", "074340.796000", "074340.718000", "074340.796000", "074340.718000", "074340.796000", "074340.718000", "074340.796000", "074340.718000", "074340.796000", "074340.718000", "074340.796000", "074340.718000", "074340.796000", "074340.734000", "074340.796000", "074340.734000", "074340.812000", "074340.734000", "074340.812000", "074340.734000", "074340.812000", "074340.734000", "074340.812000", "074340.734000", "074340.812000", "074340.734000", "074340.828000", "074340.750000", "074340.828000", "074340.750000", "074340.828000", "074340.750000", "074340.828000", "074340.750000", "074340.828000", "074340.750000", "074340.828000", "074340.750000", "074340.843000", "074340.765000", "074340.843000", "074340.765000", "074340.843000", "074340.765000"], "InstanceNumber": [1, 2, 3, 4, 5, 6, 7, 8, 9, 10, 11, 12, 13, 14, 15, 16, 17, 18, 19, 20, 21, 22, 23, 24, 25, 26, 27, 28, 29, 30, 31, 32, 33, 34, 35, 36, 37, 38, 39, 40, 41, 42, 43, 44, 45, 46, 47, 48, 49, 50, 51, 52, 53, 54, 55, 56, 57, 58, 59, 60, 61, 62, 63, 64, 65, 66, 67, 68], "LargestImagePixelValue": [4094, 4093, 4094, 4094, 4094, 4094, 4093, 4093, 4093, 4094, 4094, 4094, 4093, 4093, 4093, 4094, 4094, 4094, 4092, 4094, 4093, 4093, 4094, 4090, 4090, 4092, 4091, 4091, 4094, 4093, 4091, 4092, 4093, 4094, 4092, 4092, 4093, 4094, 4094, 4093, 4090, 4094, 4088, 4086, 4094, 4093, 4094, 4091, 4093, 4094, 4088, 4091, 4094, 4092, 4094, 4094, 4093, 4093, 4093, 4093, 4094, 4094, 4092, 4094, 4093, 4094, 4094, 4094], "SliceLocation": [-40.912667878123, -38.512666501022, -36.112666704222, -33.712666908462, -31.312668176548, -28.912668380788, -26.512667004727, -24.112667206887, -21.712667411127, -19.312667615367, -16.91266756034, -14.512667762499, -12.112667178669, -9.712667380829, -7.3126674543952, -4.9126675321217, -2.5126673885908, -0.1126674770694, 2.2873327759824, 4.6873324405818, 7.0873324877651, 9.4873329508457, 11.887332615445, 14.287332146804, 16.687331944644, 19.087333314464, 21.487333112304, 23.887332377181, 26.287332175022, 28.687331972862, 31.087333351002, 33.487332607559, 35.887332405399, 38.28733378354, 40.68733200108, 43.08733337922, 45.48733159676, 47.887331908975, 50.287333278795, 52.687331496334, 55.087332874475, 57.487331092015, 59.887332470155, 62.287333848296, 64.687330991589, 67.087333443976, 69.487333756191, 71.887333023016, 74.28733333523, 76.687333647445, 79.08732977031, 81.487330082524, 83.887332526591, 86.287332838805, 88.687335282872, 91.087329273885, 93.487331717952, 95.887332030166, 98.287332342381, 100.68733476981, 103.08732876082, 105.48733120489, 107.8873315171, 110.28733396117, 112.68733427338, 115.08733671745, 117.48733070846, 119.88733102068], "SmallestImagePixelValue": [0, 5, 2, 0, 0, 0, 0, 0, 2, 0, 0, 2, 2, 1, 1, 0, 0, 0, 1, 2, 4, 10, 0, 0, 0, 0, 0, 3, 2, 0, 2, 2, 0, 3, 1, 3, 0, 1, 2, 0, 2, 8, 1, 1, 0, 7, 0, 5, 2, 1, 1, 0, 0, 0, 0, 1, 0, 1, 0, 1, 1, 0, 2, 0, 0, 1, 0, 0], "WindowCenter": [-222.0, -224.0, -190.0, -164.0, -220.0, -228.0, -336.0, -564.0, -564.0, -478.0, -460.0, -498.0, -584.0, -592.0, -580.0, -536.0, -508.0, -564.0, -524.0, -474.0, -500.0, -434.0, -402.0, -396.0, -400.0, -350.0, -340.0, -326.0, -296.0, -288.0, -244.0, -226.0, -250.0, -262.0, -308.0, -314.0, -288.0, -214.0, -186.0, -160.0, -152.0, -130.0, -118.0, -142.0, -166.0, -162.0, -172.0, -214.0, -232.0, -224.0, -222.0, -212.0, -202.0, -242.0, -242.0, -276.0, -274.0, -286.0, -296.0, -302.0, -302.0, -328.0, -340.0, -394.0, -436.0, -440.0, -442.0, -412.0], "WindowWidth": [5792.0, 6036.0, 6152.0, 6248.0, 6218.0, 6208.0, 5952.0, 5020.0, 5020.0, 5020.0, 4994.0, 4956.0, 4912.0, 4862.0, 4786.0, 4754.0, 4706.0, 4662.0, 4600.0, 4550.0, 4502.0, 4492.0, 4476.0, 4416.0, 4378.0, 4342.0, 4304.0, 4210.0, 4096.0, 4066.0, 3992.0, 4010.0, 4020.0, 4038.0, 4012.0, 4066.0, 4054.0, 4064.0, 4120.0, 4166.0, 4196.0, 4222.0, 4204.0, 4254.0, 4246.0, 4242.0, 4254.0, 4280.0, 4266.0, 4272.0, 4282.0, 4316.0, 4328.0, 4326.0, 4304.0, 4328.0, 4382.0, 4404.0, 4426.0, 4456.0, 4494.0, 4584.0, 4614.0, 4730.0, 4732.0, 4840.0, 4902.0, 5000.0]}}}