{
    "AcquisitionMatrixPE": 96,
    "AcquisitionNumber": 1,
    "AcquisitionTime": "07:22:12.780000",
    "BandwidthPerPixelPhaseEncode": 33.602,
    "BaseResolution": 96,
    "BodyPartExamined": "BRAIN",
    "ConsistencyInfo": "N4_VD11D_LATEST_20110129",
    "ConversionSoftware": "dcm2niix",
    "ConversionSoftwareVersion": "v1.0.20210317",
    "DerivedVendorReportedEchoSpacing": 0.000620003,
    "DeviceSerialNumber": "45239",
    "DwellTime": 2.6e-06,
    "EchoTime": 0.03,
    "EchoTrainLength": 48,
    "EffectiveEchoSpacing": 0.000310001,
    "FlipAngle": 63,
    "ImageComments": "Unaliased MB4/PE3",
    "ImageOrientationPatientDICOM": [
        0.997573,
        0.0226615,
        0.0658413,
        0.0213633,
        0.800353,
        -0.599148
    ],
    "ImageType": [
        "ORIGINAL",
        "PRIMARY",
        "M",
        "ND",
        "NORM",
        "MOSAIC"
    ],
    "ImagingFrequency": 123.193,
    "InPlanePhaseEncodingDirectionDICOM": "COL",
    "InstitutionAddress": "E 24th St. 100,Austin,Southmiddle,US,78712",
    "InstitutionName": "Univ of Texas at Austin",
    "InstitutionalDepartmentName": "IRC",
    "MRAcquisitionType": "2D",
    "MagneticFieldStrength": 3,
    "Manufacturer": "Siemens",
    "ManufacturersModelName": "Skyra",
    "Modality": "MR",
    "MultibandAccelerationFactor": 4,
    "ParallelReductionFactorInPlane": 2,
    "PartialFourier": 1,
    "PatientPosition": "HFS",
    "PercentPhaseFOV": 100,
    "PercentSampling": 100,
    "PhaseEncodingDirection": "j-",
    "PhaseEncodingSteps": 96,
    "PhaseResolution": 1,
    "PixelBandwidth": 2005,
    "ProcedureStepDescription": "Poldrack2^self-scanning",
    "ProtocolName": "Resting State fMRI MBEPI_matrix96_BW2004",
    "PulseSequenceDetails": "%CustomerSeq%\\cmrr_mbep2d_bold",
    "ReceiveCoilActiveElements": "HEA;HEP",
    "ReceiveCoilName": "Head_32",
    "ReconMatrixPE": 96,
    "RefLinesPE": 94,
    "RepetitionTime": 1.16,
    "SAR": 0.0932471,
    "ScanOptions": "FS",
    "ScanningSequence": "EP",
    "SequenceName": "epfid2d1_96",
    "SequenceVariant": "SK",
    "SeriesDescription": "Resting State fMRI MBEPI_matrix96_BW2004",
    "SeriesNumber": 9,
    "ShimSetting": [
        -2766,
        8119,
        -15504,
        133,
        -223,
        225,
        48,
        -92
    ],
    "SliceThickness": 2,
    "SliceTiming": [
        0,
        0.5,
        0.9975,
        0.3575,
        0.855,
        0.215,
        0.7125,
        0.0725,
        0.57,
        1.07,
        0.4275,
        0.9275,
        0.285,
        0.785,
        0.1425,
        0.6425,
        0,
        0.5,
        0.9975,
        0.3575,
        0.855,
        0.215,
        0.7125,
        0.0725,
        0.57,
        1.07,
        0.4275,
        0.9275,
        0.285,
        0.785,
        0.1425,
        0.6425,
        0,
        0.5,
        0.9975,
        0.3575,
        0.855,
        0.215,
        0.7125,
        0.0725,
        0.57,
        1.07,
        0.4275,
        0.9275,
        0.285,
        0.785,
        0.1425,
        0.6425,
        0,
        0.5,
        0.9975,
        0.3575,
        0.855,
        0.215,
        0.7125,
        0.0725,
        0.57,
        1.07,
        0.4275,
        0.9275,
        0.285,
        0.785,
        0.1425,
        0.6425
    ],
    "SoftwareVersions": "syngo MR D11",
    "SpacingBetweenSlices": 2.4,
    "StationName": "AWP45239",
    "TaskName": "Resting fmri",
    "TotalReadoutTime": 0.0294501,
    "TxRefAmp": 333.111,
    "WipMemBlock": "3eb5eac6-c831-43a0-b249-838ae01482bb||Sequence: VD11D r195; Nov 21 2012 15:36:10 by eja",
    "dcmmeta_affine": [
        [
            -2.3900179862976074,
            0.05118287727236748,
            0.1590573936700821,
            109.73905181884766
        ],
        [
            -0.05429327115416527,
            1.917513132095337,
            -1.437840461730957,
            -67.08329010009766
        ],
        [
            0.15774476528167725,
            1.4354584217071533,
            1.915023684501648,
            -101.98462677001953
        ],
        [
            0.0,
            0.0,
            0.0,
            1.0
        ]
    ],
    "dcmmeta_reorient_transform": [
        [
            0.0,
            -1.0,
            0.0,
            95.0
        ],
        [
            1.0,
            0.0,
            0.0,
            0.0
        ],
        [
            0.0,
            0.0,
            1.0,
            0.0
        ],
        [
            0.0,
            0.0,
            0.0,
            1.0
        ]
    ],
    "dcmmeta_shape": [
        96,
        96,
        64,
        518
    ],
    "dcmmeta_slice_dim": 2,
    "dcmmeta_version": 0.6,
    "global": {
        "const": {
            "AcquisitionMatrix": [
                96,
                0,
                0,
                96
            ],
            "AngioFlag": "N",
            "BitsAllocated": 16,
            "BitsStored": 16,
            "BodyPartExamined": "BRAIN",
            "Columns": 768,
            "EchoNumbers": 1,
            "EchoTime": 30.0,
            "EchoTrainLength": 48,
            "FlipAngle": 63.0,
            "HighBit": 15,
            "ImageOrientationPatient": [
                0.9975727433687,
                0.02266154013346,
                0.06584129621016,
                0.02136328807104,
                0.80035331796213,
                -0.5991478751943
            ],
            "ImagePositionPatient": [
                -934.84490327718,
                -777.60739066942,
                463.69570345863
            ],
            "ImageType": [
                "ORIGINAL",
                "PRIMARY",
                "M",
                "ND",
                "NORM",
                "MOSAIC"
            ],
            "ImagedNucleus": "1H",
            "ImagingFrequency": 123.193329,
            "InPlanePhaseEncodingDirection": "COL",
            "MRAcquisitionType": "2D",
            "MagneticFieldStrength": 3.0,
            "Manufacturer": "SIEMENS",
            "ManufacturerModelName": "Skyra",
            "Modality": "MR",
            "NumberOfAverages": 1.0,
            "NumberOfPhaseEncodingSteps": 96,
            "PercentPhaseFieldOfView": 100.0,
            "PercentSampling": 100.0,
            "PerformedProcedureStepStartTime": "071103.734000",
            "PhotometricInterpretation": "MONOCHROME2",
            "PixelBandwidth": 2005.0,
            "PixelRepresentation": 0,
            "PixelSpacing": [
                2.3958332538605,
                2.3958332538605
            ],
            "ProtocolName": "Resting State fMRI MBEPI_matrix96_BW2004",
            "RepetitionTime": 1160.0,
            "Rows": 768,
            "SAR": 0.09324713807472,
            "SamplesPerPixel": 1,
            "ScanOptions": "FS",
            "ScanningSequence": "EP",
            "SequenceName": "epfid2d1_96",
            "SequenceVariant": "SK",
            "SeriesDescription": "Resting State fMRI MBEPI_matrix96_BW2004",
            "SeriesNumber": 9,
            "SeriesTime": "072256.843000",
            "SliceLocation": -33.913790783892,
            "SliceThickness": 2.0,
            "SmallestImagePixelValue": 0,
            "SoftwareVersions": "syngo MR D11",
            "SpacingBetweenSlices": 2.399999977982,
            "SpecificCharacterSet": "ISO_IR 100",
            "StudyID": "1",
            "StudyTime": "071103.687000",
            "TransmitCoilName": "Body",
            "VariableFlipAngleFlag": "N",
            "WindowCenterWidthExplanation": "Algo1",
            "dBdt": 0.0
        },
        "slices": {}
    },
    "time": {
        "samples": {
            "AcquisitionNumber": [
                1,
                2,
                3,
                4,
                5,
                6,
                7,
                8,
                9,
                10,
                11,
                12,
                13,
                14,
                15,
                16,
                17,
                18,
                19,
                20,
                21,
                22,
                23,
                24,
                25,
                26,
                27,
                28,
                29,
                30,
                31,
                32,
                33,
                34,
                35,
                36,
                37,
                38,
                39,
                40,
                41,
                42,
                43,
                44,
                45,
                46,
                47,
                48,
                49,
                50,
                51,
                52,
                53,
                54,
                55,
                56,
                57,
                58,
                59,
                60,
                61,
                62,
                63,
                64,
                65,
                66,
                67,
                68,
                69,
                70,
                71,
                72,
                73,
                74,
                75,
                76,
                77,
                78,
                79,
                80,
                81,
                82,
                83,
                84,
                85,
                86,
                87,
                88,
                89,
                90,
                91,
                92,
                93,
                94,
                95,
                96,
                97,
                98,
                99,
                100,
                101,
                102,
                103,
                104,
                105,
                106,
                107,
                108,
                109,
                110,
                111,
                112,
                113,
                114,
                115,
                116,
                117,
                118,
                119,
                120,
                121,
                122,
                123,
                124,
                125,
                126,
                127,
                128,
                129,
                130,
                131,
                132,
                133,
                134,
                135,
                136,
                137,
                138,
                139,
                140,
                141,
                142,
                143,
                144,
                145,
                146,
                147,
                148,
                149,
                150,
                151,
                152,
                153,
                154,
                155,
                156,
                157,
                158,
                159,
                160,
                161,
                162,
                163,
                164,
                165,
                166,
                167,
                168,
                169,
                170,
                171,
                172,
                173,
                174,
                175,
                176,
                177,
                178,
                179,
                180,
                181,
                182,
                183,
                184,
                185,
                186,
                187,
                188,
                189,
                190,
                191,
                192,
                193,
                194,
                195,
                196,
                197,
                198,
                199,
                200,
                201,
                202,
                203,
                204,
                205,
                206,
                207,
                208,
                209,
                210,
                211,
                212,
                213,
                214,
                215,
                216,
                217,
                218,
                219,
                220,
                221,
                222,
                223,
                224,
                225,
                226,
                227,
                228,
                229,
                230,
                231,
                232,
                233,
                234,
                235,
                236,
                237,
                238,
                239,
                240,
                241,
                242,
                243,
                244,
                245,
                246,
                247,
                248,
                249,
                250,
                251,
                252,
                253,
                254,
                255,
                256,
                257,
                258,
                259,
                260,
                261,
                262,
                263,
                264,
                265,
                266,
                267,
                268,
                269,
                270,
                271,
                272,
                273,
                274,
                275,
                276,
                277,
                278,
                279,
                280,
                281,
                282,
                283,
                284,
                285,
                286,
                287,
                288,
                289,
                290,
                291,
                292,
                293,
                294,
                295,
                296,
                297,
                298,
                299,
                300,
                301,
                302,
                303,
                304,
                305,
                306,
                307,
                308,
                309,
                310,
                311,
                312,
                313,
                314,
                315,
                316,
                317,
                318,
                319,
                320,
                321,
                322,
                323,
                324,
                325,
                326,
                327,
                328,
                329,
                330,
                331,
                332,
                333,
                334,
                335,
                336,
                337,
                338,
                339,
                340,
                341,
                342,
                343,
                344,
                345,
                346,
                347,
                348,
                349,
                350,
                351,
                352,
                353,
                354,
                355,
                356,
                357,
                358,
                359,
                360,
                361,
                362,
                363,
                364,
                365,
                366,
                367,
                368,
                369,
                370,
                371,
                372,
                373,
                374,
                375,
                376,
                377,
                378,
                379,
                380,
                381,
                382,
                383,
                384,
                385,
                386,
                387,
                388,
                389,
                390,
                391,
                392,
                393,
                394,
                395,
                396,
                397,
                398,
                399,
                400,
                401,
                402,
                403,
                404,
                405,
                406,
                407,
                408,
                409,
                410,
                411,
                412,
                413,
                414,
                415,
                416,
                417,
                418,
                419,
                420,
                421,
                422,
                423,
                424,
                425,
                426,
                427,
                428,
                429,
                430,
                431,
                432,
                433,
                434,
                435,
                436,
                437,
                438,
                439,
                440,
                441,
                442,
                443,
                444,
                445,
                446,
                447,
                448,
                449,
                450,
                451,
                452,
                453,
                454,
                455,
                456,
                457,
                458,
                459,
                460,
                461,
                462,
                463,
                464,
                465,
                466,
                467,
                468,
                469,
                470,
                471,
                472,
                473,
                474,
                475,
                476,
                477,
                478,
                479,
                480,
                481,
                482,
                483,
                484,
                485,
                486,
                487,
                488,
                489,
                490,
                491,
                492,
                493,
                494,
                495,
                496,
                497,
                498,
                499,
                500,
                501,
                502,
                503,
                504,
                505,
                506,
                507,
                508,
                509,
                510,
                511,
                512,
                513,
                514,
                515,
                516,
                517,
                518
            ],
            "AcquisitionTime": [
                "072212.780000",
                "072241.777500",
                "072242.937500",
                "072244.097500",
                "072245.257500",
                "072246.417500",
                "072247.577500",
                "072248.737500",
                "072249.897500",
                "072251.057500",
                "072252.220000",
                "072253.380000",
                "072254.540000",
                "072255.700000",
                "072256.860000",
                "072258.020000",
                "072259.180000",
                "072300.340000",
                "072301.500000",
                "072302.660000",
                "072303.820000",
                "072304.980000",
                "072306.140000",
                "072307.300000",
                "072308.460000",
                "072309.620000",
                "072310.780000",
                "072311.940000",
                "072313.100000",
                "072314.260000",
                "072315.420000",
                "072316.580000",
                "072317.740000",
                "072318.900000",
                "072320.060000",
                "072321.220000",
                "072322.380000",
                "072323.540000",
                "072324.700000",
                "072325.860000",
                "072327.020000",
                "072328.180000",
                "072329.340000",
                "072330.500000",
                "072331.660000",
                "072332.820000",
                "072333.980000",
                "072335.140000",
                "072336.300000",
                "072337.460000",
                "072338.620000",
                "072339.780000",
                "072340.940000",
                "072342.100000",
                "072343.260000",
                "072344.420000",
                "072345.580000",
                "072346.740000",
                "072347.900000",
                "072349.060000",
                "072350.220000",
                "072351.380000",
                "072352.540000",
                "072353.700000",
                "072354.860000",
                "072356.020000",
                "072357.180000",
                "072358.340000",
                "072359.500000",
                "072400.660000",
                "072401.820000",
                "072402.980000",
                "072404.140000",
                "072405.300000",
                "072406.460000",
                "072407.620000",
                "072408.780000",
                "072409.940000",
                "072411.100000",
                "072412.260000",
                "072413.420000",
                "072414.580000",
                "072415.740000",
                "072416.900000",
                "072418.060000",
                "072419.220000",
                "072420.380000",
                "072421.540000",
                "072422.700000",
                "072423.860000",
                "072425.020000",
                "072426.180000",
                "072427.340000",
                "072428.500000",
                "072429.660000",
                "072430.820000",
                "072431.980000",
                "072433.140000",
                "072434.300000",
                "072435.460000",
                "072436.620000",
                "072437.780000",
                "072438.940000",
                "072440.100000",
                "072441.260000",
                "072442.420000",
                "072443.580000",
                "072444.740000",
                "072445.900000",
                "072447.060000",
                "072448.220000",
                "072449.380000",
                "072450.540000",
                "072451.700000",
                "072452.860000",
                "072454.020000",
                "072455.180000",
                "072456.340000",
                "072457.500000",
                "072458.660000",
                "072459.820000",
                "072500.980000",
                "072502.140000",
                "072503.300000",
                "072504.460000",
                "072505.620000",
                "072506.780000",
                "072507.940000",
                "072509.100000",
                "072510.260000",
                "072511.420000",
                "072512.580000",
                "072513.740000",
                "072514.900000",
                "072516.060000",
                "072517.220000",
                "072518.380000",
                "072519.540000",
                "072520.700000",
                "072521.860000",
                "072523.020000",
                "072524.180000",
                "072525.340000",
                "072526.500000",
                "072527.660000",
                "072528.820000",
                "072529.980000",
                "072531.140000",
                "072532.300000",
                "072533.460000",
                "072534.620000",
                "072535.780000",
                "072536.940000",
                "072538.100000",
                "072539.260000",
                "072540.420000",
                "072541.580000",
                "072542.740000",
                "072543.900000",
                "072545.060000",
                "072546.220000",
                "072547.380000",
                "072548.540000",
                "072549.700000",
                "072550.860000",
                "072552.020000",
                "072553.180000",
                "072554.340000",
                "072555.500000",
                "072556.660000",
                "072557.820000",
                "072558.980000",
                "072600.140000",
                "072601.300000",
                "072602.460000",
                "072603.620000",
                "072604.780000",
                "072605.940000",
                "072607.100000",
                "072608.260000",
                "072609.420000",
                "072610.580000",
                "072611.740000",
                "072612.900000",
                "072614.060000",
                "072615.220000",
                "072616.380000",
                "072617.540000",
                "072618.700000",
                "072619.860000",
                "072621.020000",
                "072622.180000",
                "072623.340000",
                "072624.500000",
                "072625.660000",
                "072626.820000",
                "072627.980000",
                "072629.140000",
                "072630.300000",
                "072631.460000",
                "072632.620000",
                "072633.780000",
                "072634.940000",
                "072636.100000",
                "072637.260000",
                "072638.420000",
                "072639.580000",
                "072640.740000",
                "072641.900000",
                "072643.060000",
                "072644.220000",
                "072645.380000",
                "072646.540000",
                "072647.700000",
                "072648.860000",
                "072650.020000",
                "072651.180000",
                "072652.340000",
                "072653.500000",
                "072654.660000",
                "072655.820000",
                "072656.980000",
                "072658.140000",
                "072659.300000",
                "072700.460000",
                "072701.620000",
                "072702.780000",
                "072703.940000",
                "072705.100000",
                "072706.260000",
                "072707.420000",
                "072708.580000",
                "072709.740000",
                "072710.900000",
                "072712.060000",
                "072713.220000",
                "072714.380000",
                "072715.540000",
                "072716.700000",
                "072717.860000",
                "072719.020000",
                "072720.180000",
                "072721.340000",
                "072722.500000",
                "072723.660000",
                "072724.820000",
                "072725.980000",
                "072727.140000",
                "072728.300000",
                "072729.460000",
                "072730.620000",
                "072731.780000",
                "072732.940000",
                "072734.100000",
                "072735.260000",
                "072736.420000",
                "072737.580000",
                "072738.740000",
                "072739.900000",
                "072741.060000",
                "072742.222500",
                "072743.382500",
                "072744.542500",
                "072745.702500",
                "072746.862500",
                "072748.022500",
                "072749.182500",
                "072750.342500",
                "072751.502500",
                "072752.662500",
                "072753.822500",
                "072754.982500",
                "072756.142500",
                "072757.302500",
                "072758.462500",
                "072759.622500",
                "072800.782500",
                "072801.942500",
                "072803.102500",
                "072804.262500",
                "072805.422500",
                "072806.582500",
                "072807.742500",
                "072808.902500",
                "072810.062500",
                "072811.222500",
                "072812.382500",
                "072813.542500",
                "072814.702500",
                "072815.862500",
                "072817.022500",
                "072818.182500",
                "072819.342500",
                "072820.502500",
                "072821.662500",
                "072822.822500",
                "072823.982500",
                "072825.142500",
                "072826.302500",
                "072827.462500",
                "072828.622500",
                "072829.782500",
                "072830.942500",
                "072832.102500",
                "072833.262500",
                "072834.422500",
                "072835.582500",
                "072836.742500",
                "072837.902500",
                "072839.062500",
                "072840.222500",
                "072841.382500",
                "072842.542500",
                "072843.702500",
                "072844.862500",
                "072846.022500",
                "072847.182500",
                "072848.342500",
                "072849.502500",
                "072850.662500",
                "072851.822500",
                "072852.982500",
                "072854.142500",
                "072855.302500",
                "072856.462500",
                "072857.622500",
                "072858.782500",
                "072859.942500",
                "072901.102500",
                "072902.262500",
                "072903.422500",
                "072904.582500",
                "072905.742500",
                "072906.902500",
                "072908.062500",
                "072909.222500",
                "072910.382500",
                "072911.542500",
                "072912.702500",
                "072913.862500",
                "072915.022500",
                "072916.182500",
                "072917.342500",
                "072918.502500",
                "072919.662500",
                "072920.822500",
                "072921.982500",
