{"AcquisitionMatrixPE": 96, "AcquisitionNumber": 1, "AcquisitionTime": "17:22:21.292500", "BaseResolution": 96, "BodyPartExamined": "BRAIN", "ConsistencyInfo": "N4_VD11D_LATEST_20110129", "ConversionSoftware": "dcm2niix", "ConversionSoftwareVersion": "v1.0.20210317", "DeviceSerialNumber": "45239", "DwellTime": 9.2e-06, "EchoNumber": 2, "EchoTime": 0.00738, "EchoTime1": 0.00492, "EchoTime2": 0.00738, "FlipAngle": 50, "ImageOrientationPatientDICOM": [0.996801, 0.0150999, 0.0784814, 0.0152153, 0.928175, -0.371833], "ImageType": ["ORIGINAL", "PRIMARY", "P", "ND", "PHASE"], "ImagingFrequency": 123.193, "InPlanePhaseEncodingDirectionDICOM": "COL", "InstitutionAddress": "E 24th St. 100,Austin,Southmiddle,US,78712", "InstitutionName": "Univ of Texas at Austin", "InstitutionalDepartmentName": "IRC", "MRAcquisitionType": "2D", "MagneticFieldStrength": 3, "Manufacturer": "Siemens", "ManufacturersModelName": "Skyra", "Modality": "MR", "MultibandAccelerationFactor": 2, "PartialFourier": 1, "PatientPosition": "HFS", "PercentPhaseFOV": 100, "PercentSampling": 100, "PhaseEncodingDirection": "j-", "PhaseEncodingSteps": 96, "PhaseResolution": 1, "PixelBandwidth": 565, "ProcedureStepDescription": "Poldrack2^self-scanning", "ProtocolName": "gre_field_mapping", "PulseSequenceDetails": "%SiemensSeq%\\gre_field_mapping", "ReceiveCoilActiveElements": "HEA;HEP", "ReceiveCoilName": "Head_32", "ReconMatrixPE": 96, "RepetitionTime": 0.731, "SAR": 0.108619, "ScanningSequence": "GR", "SequenceName": "*fm2d2r", "SequenceVariant": "SP", "SeriesDescription": "gre_field_mapping", "SeriesNumber": 11, "ShimSetting": [-2779, 8113, -15461, 139, -246, 180, 93, -98], "SliceThickness": 2, "SliceTiming": [0.375, 0, 0.375, 0.01562, 0.39062, 0.03125, 0.40625, 0.03125, 0.40625, 0.04688, 0.42188, 0.0625, 0.4375, 0.07812, 0.45312, 0.07812, 0.45312, 0.09375, 0.46875, 0.10938, 0.48438, 0.10938, 0.48438, 0.125, 0.5, 0.14062, 0.51562, 0.14062, 0.51562, 0.15625, 0.53125, 0.17188, 0.54688, 0.17188, 0.54688, 0.1875, 0.5625, 0.20312, 0.57812, 0.20312, 0.57812, 0.21875, 0.59375, 0.23438, 0.60938, 0.23438, 0.625, 0.25, 0.625, 0.26562, 0.64062, 0.26562, 0.65625, 0.28125, 0.65625, 0.29688, 0.67188, 0.3125, 0.6875, 0.3125, 0.6875, 0.32812, 0.70312, 0.34375, 0.71875, 0.34375, 0.71875, 0.35938], "SoftwareVersions": "syngo MR D11", "SpacingBetweenSlices": 2.4, "StationName": "AWP45239", "TxRefAmp": 333.265, "dcmmeta_affine": [[-2.388169527053833, 0.036453403532505035, 0.18830204010009766, 112.8734359741211], [-0.03617681562900543, 2.223752021789551, -0.8924102783203125, -90.68705749511719], [0.18802836537361145, 0.8908505439758301, 2.219940185546875, -90.91799926757812], [0.0, 0.0, 0.0, 1.0]], "dcmmeta_reorient_transform": [[0.0, -1.0, 0.0, 95.0], [1.0, 0.0, 0.0, 0.0], [0.0, 0.0, -1.0, 67.0], [0.0, 0.0, 0.0, 1.0]], "dcmmeta_shape": [96, 96, 68], "dcmmeta_slice_dim": 2, "dcmmeta_version": 0.6, "global": {"const": {"AcquisitionMatrix": [96, 0, 0, 96], "AcquisitionNumber": 1, "AngioFlag": "N", "BitsAllocated": 16, "BitsStored": 12, "BodyPartExamined": "BRAIN", "Columns": 96, "EchoNumbers": 2, "EchoTime": 7.38, "EchoTrainLength": 0, "FlipAngle": 50.0, "HighBit": 11, "ImageOrientationPatient": [0.99680121481872, 0.01509988847406, 0.078481408652, 0.01521533428529, 0.9281748227608, -0.3718332852174], "ImageType": ["ORIGINAL", "PRIMARY", "P", "ND"], "ImagedNucleus": "1H", "ImagingFrequency": 123.193341, "InPlanePhaseEncodingDirection": "COL", "MRAcquisitionType": "2D", "MagneticFieldStrength": 3.0, "Manufacturer": "SIEMENS", "ManufacturerModelName": "Skyra", "Modality": "MR", "NumberOfAverages": 1.0, "NumberOfPhaseEncodingSteps": 96, "PercentPhaseFieldOfView": 100.0, "PercentSampling": 100.0, "PerformedProcedureStepStartTime": "165957.375000", "PhotometricInterpretation": "MONOCHROME2", "PixelBandwidth": 565.0, "PixelRepresentation": 0, "PixelSpacing": [2.3958332538605, 2.3958332538605], "ProtocolName": "gre_field_mapping", "RepetitionTime": 731.0, "RescaleIntercept": -4096.0, "RescaleSlope": 2.0, "RescaleType": "US", "Rows": 96, "SAR": 0.10861879992934, "SamplesPerPixel": 1, "ScanningSequence": "GR", "SequenceName": "*fm2d2r", "SequenceVariant": "SP", "SeriesDescription": "gre_field_mapping", "SeriesNumber": 11, "SeriesTime": "172443.437000", "SliceThickness": 2.0, "SoftwareVersions": "syngo MR D11", "SpacingBetweenSlices": 2.4, "SpecificCharacterSet": "ISO_IR 100", "StudyID": "1", "StudyTime": "165957.343000", "TransmitCoilName": "Body", "VariableFlipAngleFlag": "N", "WindowCenterWidthExplanation": "Algo1", "dBdt": 0.0}, "slices": {"AcquisitionTime": ["172221.292500", "172220.927500", "172221.302500", "172220.937500", "172221.315000", "172220.947500", "172221.325000", "172220.960000", "172221.335000", "172220.970000", "172221.347500", "172220.980000", "172221.357500", "172220.992500", "172221.367500", "172221.002500", "172221.377500", "172221.012500", "172221.390000", "172221.025000", "172221.400000", "172221.035000", "172221.410000", "172221.045000", "172221.422500", "172221.055000", "172221.432500", "172221.067500", "172221.442500", "172221.077500", "172221.455000", "172221.087500", "172221.465000", "172221.100000", "172221.475000", "172221.110000", "172221.485000", "172221.120000", "172221.497500", "172221.132500", "172221.507500", "172221.142500", "172221.517500", "172221.152500", "172221.530000", "172221.162500", "172221.540000", "172221.175000", "172221.550000", "172221.185000", "172221.562500", "172221.195000", "172221.572500", "172221.207500", "172221.582500", "172221.217500", "172221.592500", "172221.227500", "172221.605000", "172221.240000", "172221.615000", "172221.250000", "172221.625000", "172221.260000", "172221.637500", "172221.270000", "172221.647500", "172221.282500"], "ContentTime": ["172443.531000", "172443.437000", "172443.546000", "172443.453000", "172443.546000", "172443.453000", "172443.546000", "172443.453000", "172443.546000", "172443.453000", "172443.546000", "172443.468000", "172443.546000", "172443.468000", "172443.546000", "172443.468000", "172443.562000", "172443.468000", "172443.562000", "172443.468000", "172443.562000", "172443.468000", "172443.562000", "172443.468000", "172443.562000", "172443.484000", "172443.562000", "172443.484000", "172443.562000", "172443.484000", "172443.562000", "172443.484000", "172443.562000", "172443.484000", "172443.578000", "172443.484000", "172443.578000", "172443.484000", "172443.578000", "172443.500000", "172443.578000", "172443.500000", "172443.593000", "172443.515000", "172443.593000", "172443.515000", "172443.593000", "172443.515000", "172443.593000", "172443.515000", "172443.593000", "172443.515000", "172443.593000", "172443.515000", "172443.593000", "172443.515000", "172443.593000", "172443.531000", "172443.609000", "172443.531000", "172443.609000", "172443.531000", "172443.609000", "172443.531000", "172443.609000", "172443.531000", "172443.609000", "172443.531000"], "CsaImage.GSWDDataType": ["measured", "predicted", "measured", "predicted", "measured", "predicted", "measured", "predicted", "measured", "predicted", "measured", "predicted", "measured", "predicted", "measured", "predicted", "measured", "predicted", "measured", "predicted", "measured", "predicted", "measured", "predicted", "measured", "predicted", "measured", "predicted", "measured", "predicted", "measured", "predicted", "measured", "predicted", "measured", "predicted", "measured", "predicted", "measured", "predicted", "measured", "predicted", "measured", "predicted", "measured", "predicted", "measured", "predicted", "measured", "predicted", "measured", "measured", "measured", "measured", "measured", "measured", "measured", "measured", "measured", "measured", "measured", "measured", "measured", "measured", "measured", "measured", "measured", "measured"], "CsaImage.ICE_Dims": ["X_2_1_1_1_1_1_35_1_1_1_1_83", "X_2_1_1_1_1_1_1_1_1_2_1_83", "X_2_1_1_1_1_1_36_1_1_3_1_83", "X_2_1_1_1_1_1_2_1_1_4_1_83", "X_2_1_1_1_1_1_37_1_1_5_1_83", "X_2_1_1_1_1_1_3_1_1_6_1_83", "X_2_1_1_1_1_1_38_1_1_7_1_83", "X_2_1_1_1_1_1_4_1_1_8_1_83", "X_2_1_1_1_1_1_39_1_1_9_1_83", "X_2_1_1_1_1_1_5_1_1_10_1_83", "X_2_1_1_1_1_1_40_1_1_11_1_83", "X_2_1_1_1_1_1_6_1_1_12_1_83", "X_2_1_1_1_1_1_41_1_1_13_1_83", "X_2_1_1_1_1_1_7_1_1_14_1_83", "X_2_1_1_1_1_1_42_1_1_15_1_83", "X_2_1_1_1_1_1_8_1_1_16_1_83", "X_2_1_1_1_1_1_43_1_1_17_1_83", "X_2_1_1_1_1_1_9_1_1_18_1_83", "X_2_1_1_1_1_1_44_1_1_19_1_83", "X_2_1_1_1_1_1_10_1_1_20_1_83", "X_2_1_1_1_1_1_45_1_1_21_1_83", "X_2_1_1_1_1_1_11_1_1_22_1_83", "X_2_1_1_1_1_1_46_1_1_23_1_83", "X_2_1_1_1_1_1_12_1_1_24_1_83", "X_2_1_1_1_1_1_47_1_1_25_1_83", "X_2_1_1_1_1_1_13_1_1_26_1_83", "X_2_1_1_1_1_1_48_1_1_27_1_83", "X_2_1_1_1_1_1_14_1_1_28_1_83", "X_2_1_1_1_1_1_49_1_1_29_1_83", "X_2_1_1_1_1_1_15_1_1_30_1_83", "X_2_1_1_1_1_1_50_1_1_31_1_83", "X_2_1_1_1_1_1_16_1_1_32_1_83", "X_2_1_1_1_1_1_51_1_1_33_1_83", "X_2_1_1_1_1_1_17_1_1_34_1_83", "X_2_1_1_1_1_1_52_1_1_35_1_83", "X_2_1_1_1_1_1_18_1_1_36_1_83", "X_2_1_1_1_1_1_53_1_1_37_1_83", "X_2_1_1_1_1_1_19_1_1_38_1_83", "X_2_1_1_1_1_1_54_1_1_39_1_83", "X_2_1_1_1_1_1_20_1_1_40_1_83", "X_2_1_1_1_1_1_55_1_1_41_1_83", "X_2_1_1_1_1_1_21_1_1_42_1_83", "X_2_1_1_1_1_1_56_1_1_43_1_83", "X_2_1_1_1_1_1_22_1_1_44_1_83", "X_2_1_1_1_1_1_57_1_1_45_1_83", "X_2_1_1_1_1_1_23_1_1_46_1_83", "X_2_1_1_1_1_1_58_1_1_47_1_83", "X_2_1_1_1_1_1_24_1_1_48_1_83", "X_2_1_1_1_1_1_59_1_1_49_1_83", "X_2_1_1_1_1_1_25_1_1_50_1_83", "X_2_1_1_1_1_1_60_1_1_51_1_83", "X_2_1_1_1_1_1_26_1_1_52_1_83", "X_2_1_1_1_1_1_61_1_1_53_1_83", "X_2_1_1_1_1_1_27_1_1_54_1_83", "X_2_1_1_1_1_1_62_1_1_55_1_83", "X_2_1_1_1_1_1_28_1_1_56_1_83", "X_2_1_1_1_1_1_63_1_1_57_1_83", "X_2_1_1_1_1_1_29_1_1_58_1_83", "X_2_1_1_1_1_1_64_1_1_59_1_83", "X_2_1_1_1_1_1_30_1_1_60_1_83", "X_2_1_1_1_1_1_65_1_1_61_1_83", "X_2_1_1_1_1_1_31_1_1_62_1_83", "X_2_1_1_1_1_1_66_1_1_63_1_83", "X_2_1_1_1_1_1_32_1_1_64_1_83", "X_2_1_1_1_1_1_67_1_1_65_1_83", "X_2_1_1_1_1_1_33_1_1_66_1_83", "X_2_1_1_1_1_1_68_1_1_67_1_83", "X_2_1_1_1_1_1_34_1_1_68_1_83"], "CsaImage.ProtocolSliceNumber": [0, 1, 2, 3, 4, 5, 6, 7, 8, 9, 10, 11, 12, 13, 14, 15, 16, 17, 18, 19, 20, 21, 22, 23, 24, 25, 26, 27, 28, 29, 30, 31, 32, 33, 34, 35, 36, 37, 38, 39, 40, 41, 42, 43, 44, 45, 46, 47, 48, 49, 50, 51, 52, 53, 54, 55, 56, 57, 58, 59, 60, 61, 62, 63, 64, 65, 66, 67], "CsaImage.RFSWDDataType": ["measured", "predicted", "measured", "predicted", "measured", "predicted", "measured", "predicted", "measured", "predicted", "measured", "predicted", "measured", "predicted", "measured", "predicted", "measured", "predicted", "measured", "predicted", "measured", "predicted", "measured", "predicted", "measured", "predicted", "measured", "predicted", "measured", "predicted", "measured", "predicted", "measured", "predicted", "measured", "predicted", "measured", "predicted", "measured", "predicted", "measured", "predicted", "measured", "predicted", "measured", "predicted", "measured", "predicted", "measured", "measured", "measured", "measured", "measured", "measured", "measured", "measured", "measured", "measured", "measured", "measured", "measured", "measured", "measured", "measured", "measured", "measured", "measured", "measured"], "CsaImage.SlicePosition_PCS": [[-116.33652606, -120.56945509, -6.2873472], [-116.52482789, -119.67704386, -4.0674032], [-116.71312972, -118.78463263, -1.84746302], [-116.90143155, -117.8922214, 0.37248098], [-117.08973335, -116.99981016, 2.59242308], [-117.27803521, -116.10739941, 4.81236517], [-117.46633701, -115.21498818, 7.03230917], [-117.65463882, -114.32257694, 9.25225126], [-117.84294074, -113.43016571, 11.47219335], [-118.03124254, -112.53775496, 13.69213545], [-118.21954434, -111.64534349, 15.91207945], [-118.40784614, -110.75293249, 18.13202154], [-118.59614794, -109.86052126, 20.35196363], [-118.78444975, -108.96811006, 22.57190573], [-118.97275179, -108.07569892, 24.79184877], [-119.16105359, -107.18328768, 27.01179134], [-119.34935539, -106.29087657, 29.23173344], [-119.53765719, -105.39846534, 31.45167624], [-119.72595899, -104.50605435, 33.67161865], [-119.91426079, -103.61364311, 35.89156114], [-120.1025626, -102.72123188, 38.11150371], [-120.2908644, -101.82882065, 40.33144628], [-120.47916644, -100.93640942, 42.55138838], [-120.667468, -100.04399866, 44.77133142], [-120.85577004, -99.15158743, 46.99127352], [-121.0440716, -98.2591762, 49.21121656], [-121.23237364, -97.36676497, 51.43115866], [-121.42067568, -96.47435373, 53.65110075], [-121.60897725, -95.5819425, 55.87104284], [-121.79727929, -94.68953127, 58.09098684], [-121.98558085, -93.79712004, 60.31092893], [-122.17388289, -92.90470881, 62.53087103], [-122.36218445, -92.01229757, 64.75081312], [-122.55048649, -91.1198873, 66.97075521], [-122.73878806, -90.22747511, 69.19069921], [-122.9270901, -89.33506483, 71.4106394], [-123.11539214, -88.44265265, 73.6305834], [-123.3036937, -87.55024237, 75.8505274], [-123.49199574, -86.65783018, 78.07046759], [-123.6802973, -85.7654199, 80.29041159], [-123.86859934, -84.87300772, 82.51035559], [-124.05690091, -83.98059744, 84.73029577], [-124.24520295, -83.08818716, 86.95023977], [-124.43350451, -82.19577498, 89.17017996], [-124.62180655, -81.3033647, 91.39012396], [-124.81010859, -80.41095251, 93.61006796], [-124.99841063, -79.51854223, 95.83000814], [-125.18671172, -78.62613005, 98.04994833], [-125.37501376, -77.73371977, 100.26989614], [-125.5633158, -76.84130758, 102.48983633], [-125.75161784, -75.94889731, 104.70977651], [-125.93991892, -75.05648703, 106.92972433], [-126.12822096, -74.16407293, 109.14966452], [-126.316523, -73.27166266, 111.3696047], [-126.50482504, -72.37925238, 113.58955252], [-126.69312708, -71.4868421, 115.8094927], [-126.88142817, -70.59443182, 118.02943289], [-127.06973021, -69.70201773, 120.24937307], [-127.25803225, -68.80960745, 122.46932089], [-127.44633429, -67.91719717, 124.68926107], [-127.63463538, -67.02478689, 126.90920126], [-127.82293742, -66.1323728, 129.12914907], [-128.01123946, -65.23996252, 131.34908926], [-128.1995415, -64.34755224, 133.56902944], [-128.38784354, -63.45514197, 135.78897726], [-128.57614462, -62.56272787, 138.00891744], [-128.76444666, -61.67031759, 140.22885763], [-128.95274871, -60.77790732, 142.44879782]], "CsaImage.TimeAfterStart": [1.0975, 0.7325, 1.11, 0.745, 1.12, 0.755, 1.13, 0.765, 1.1425, 0.775, 1.1525, 0.7875, 1.1625, 0.7975, 1.175, 0.8075, 1.185, 0.82, 1.195, 0.83, 1.205, 0.84, 1.2175, 0.8525, 1.2275, 0.8625, 1.2375, 0.8725, 1.25, 0.8825, 1.26, 0.895, 1.27, 0.905, 1.2825, 0.915, 1.2925, 0.9275, 1.3025, 0.9375, 1.3125, 0.9475, 1.325, 0.96, 1.335, 0.97, 1.345, 0.98, 1.3575, 0.99, 1.3675, 1.0025, 1.3775, 1.0125, 1.39, 1.0225, 1.4, 1.035, 1.41, 1.045, 1.42, 1.055, 1.4325, 1.0675, 1.4425, 1.0775, 1.4525, 1.0875], "ImagePositionPatient": [[-116.33652605898, -120.56945509128, -6.2873472036787], [-116.52482788674, -119.67704385929, -4.0674032034345], [-116.71312971822, -118.78463262729, -1.8474630178877], [-116.9014315497, -117.8922213953, 0.37248098235647], [-117.08973335138, -116.99981016331, 2.592423075252], [-117.27803521267, -116.10739940815, 4.8123651681475], [-117.46633701435, -115.21498817615, 7.0323091683916], [-117.65463881603, -114.32257694416, 9.2522512612871], [-117.84294073692, -113.43016571216, 11.472193354183], [-118.03124253861, -112.53775495701, 13.692135447078], [-118.21954434029, -111.64534348659, 15.912079447322], [-118.40784614197, -110.75293249302, 18.132021540218], [-118.59614794365, -109.86052126102, 20.351963633113], [-118.78444974533, -108.96811005883, 22.571905726009], [-118.97275178543, -108.07569891624, 24.791848772579], [-119.16105358711, -107.18328768425, 27.011791342311], [-119.3493553888, -106.29087657146, 29.231733435207], [-119.53765719048, -105.39846533947, 31.451676243358], [-119.72595899216, -104.50605434589, 33.671618649178], [-119.91426079384, -103.6136431139, 35.891561144405], [-120.10256259552, -102.7212318819, 38.111503714137], [-120.2908643972, -101.82882064991, 40.33144628387], [-120.4791664373, -100.93640941791, 42.551388376766], [-120.66746800057, -100.04399866276, 44.771331423335], [-120.85577004067, -99.151587430762, 46.991273516231], [-121.04407160393, -98.259176198767, 49.211216562801], [-121.23237364403, -97.366764966772, 51.431158655696], [-121.42067568413, -96.474353734778, 53.651100748592], [-121.60897724739, -95.581942502783, 55.871042841487], [-121.79727928749, -94.689531270788, 58.090986841731], [-121.98558085076, -93.797120038794, 60.310928934627], [-122.17388289086, -92.904708806799, 62.530871027522], [-122.36218445412, -92.012297574805, 64.750813120418], [-122.55048649422, -91.119887296484, 66.970755213314], [-122.73878805748, -90.227475110815, 69.190699213558], [-122.92709009758, -89.335064832495, 71.410639399105], [-123.11539213768, -88.442652646826, 73.630583399349], [-123.30369370094, -87.550242368506, 75.850527399593], [-123.49199574104, -86.657830182837, 78.07046758514], [-123.68029730431, -85.765419904516, 80.290411585384], [-123.86859934441, -84.873007718847, 82.510355585628], [-124.05690090767, -83.980597440527, 84.730295771175], [-124.24520294777, -83.088187162207, 86.950239771419], [-124.43350451103, -82.195774976538, 89.170179956966], [-124.62180655113, -81.303364698218, 91.39012395721], [-124.81010859123, -80.410952512549, 93.610067957454], [-124.99841063133, -79.518542234228, 95.830008143001], [-125.18671171776, -78.626130048559, 98.049948328548], [-125.37501375786, -77.733719770239, 100.26989614349], [-125.56331579796, -76.84130758457, 102.48983632904], [-125.75161783806, -75.94889730625, 104.70977651458], [-125.93991892449, -75.05648702793, 106.92972432952], [-126.12822096459, -74.164072934912, 109.14966451507], [-126.31652300469, -73.271662656592, 111.36960470062], [-126.50482504479, -72.379252378271, 113.58955251556], [-126.69312708489, -71.486842099951, 115.80949270111], [-126.88142817131, -70.594431821631, 118.02943288665], [-127.06973021141, -69.702017728613, 120.2493730722], [-127.25803225151, -68.809607450293, 122.46932088714], [-127.44633429161, -67.917197171972, 124.68926107269], [-127.63463537804, -67.024786893652, 126.90920125824], [-127.82293741814, -66.132372800635, 129.12914907318], [-128.01123945824, -65.239962522314, 131.34908925872], [-128.19954149834, -64.347552243994, 133.56902944427], [-128.38784353844, -63.455141965674, 135.78897725921], [-128.57614462486, -62.562727872656, 138.00891744476], [-128.76444666496, -61.670317594336, 140.22885763031], [-128.95274870506, -60.777907316015, 142.44879781585]], "InstanceCreationTime": ["172443.531000", "172443.437000", "172443.546000", "172443.453000", "172443.546000", "172443.453000", "172443.546000", "172443.453000", "172443.546000", "172443.453000", "172443.546000", "172443.468000", "172443.546000", "172443.468000", "172443.546000", "172443.468000", "172443.562000", "172443.468000", "172443.562000", "172443.468000", "172443.562000", "172443.468000", "172443.562000", "172443.468000", "172443.562000", "172443.484000", "172443.562000", "172443.484000", "172443.562000", "172443.484000", "172443.562000", "172443.484000", "172443.562000", "172443.484000", "172443.578000", "172443.484000", "172443.578000", "172443.484000", "172443.578000", "172443.500000", "172443.578000", "172443.500000", "172443.593000", "172443.515000", "172443.593000", "172443.515000", "172443.593000", "172443.515000", "172443.593000", "172443.515000", "172443.593000", "172443.515000", "172443.593000", "172443.515000", "172443.593000", "172443.515000", "172443.593000", "172443.531000", "172443.609000", "172443.531000", "172443.609000", "172443.531000", "172443.609000", "172443.531000", "172443.609000", "172443.531000", "172443.609000", "172443.531000"], "InstanceNumber": [1, 2, 3, 4, 5, 6, 7, 8, 9, 10, 11, 12, 13, 14, 15, 16, 17, 18, 19, 20, 21, 22, 23, 24, 25, 26, 27, 28, 29, 30, 31, 32, 33, 34, 35, 36, 37, 38, 39, 40, 41, 42, 43, 44, 45, 46, 47, 48, 49, 50, 51, 52, 53, 54, 55, 56, 57, 58, 59, 60, 61, 62, 63, 64, 65, 66, 67, 68], "LargestImagePixelValue": [4094, 4094, 4091, 4094, 4094, 4093, 4092, 4094, 4094, 4094, 4094, 4094, 4094, 4094, 4094, 4094, 4094, 4094, 4094, 4092, 4094, 4090, 4094, 4091, 4093, 4093, 4094, 4094, 4092, 4094, 4094, 4094, 4093, 4090, 4088, 4093, 4087, 4091, 4093, 4093, 4094, 4093, 4088, 4093, 4093, 4094, 4093, 4086, 4093, 4085, 4094, 4092, 4092, 4094, 4093, 4094, 4094, 4093, 4091, 4094, 4092, 4094, 4094, 4094, 4092, 4093, 4094, 4092], "SliceLocation": [-41.520289372057, -39.120287965902, -36.720290087958, -34.32028868151, -31.920289041653, -29.520289574425, -27.120288170316, -24.720288530458, -22.320288881248, -19.920289418696, -17.520287925934, -15.12028837473, -12.720288734872, -10.320289106096, -7.9202885986518, -5.5202885177314, -3.1202889222005, -0.7202886207486, 1.6797112199033, 4.0797112319076, 6.479711312828, 8.8797113937484, 11.279711052312, 13.679711378283, 16.079711036847, 18.479711540124, 20.879711198687, 23.279710857251, 25.679710478402, 28.079711901218, 30.479711522369, 32.879711180933, 35.279710802084, 37.679710106035, 40.079711846051, 42.47970938575, 44.879711163178, 47.279712193969, 49.679710442893, 52.079711473684, 54.479713251111, 56.879710753398, 59.279711821601, 61.679710033113, 64.079711101316, 66.479712878744, 68.879710418443, 71.279708592543, 73.67971318925, 76.079711438174, 78.479708977873, 80.879713499755, 83.279712457904, 85.679709997604, 88.07971459431, 90.47971213401, 92.879709598885, 95.279708557034, 97.67971315374, 100.07971069344, 102.47970815831, 104.87971417347, 107.27971171317, 109.67970925287, 112.07971384958, 114.4797127329, 116.8797102726, 119.2797078123], "SmallestImagePixelValue": [0, 0, 1, 0, 0, 0, 0, 0, 0, 0, 0, 3, 0, 0, 1, 1, 0, 3, 3, 2, 1, 0, 0, 0, 6, 4, 2, 4, 1, 1, 10, 1, 4, 0, 2, 0, 2, 1, 6, 0, 3, 1, 4, 3, 0, 1, 3, 0, 6, 0, 2, 0, 0, 2, 2, 0, 0, 1, 1, 0, 0, 0, 0, 1, 0, 0, 0, 0], "WindowCenter": [-506.0, -496.0, -470.0, -514.0, -534.0, -566.0, -414.0, -516.0, -534.0, -482.0, -522.0, -424.0, -484.0, -438.0, -472.0, -428.0, -462.0, -370.0, -418.0, -450.0, -528.0, -556.0, -608.0, -554.0, -514.0, -460.0, -442.0, -386.0, -314.0, -290.0, -254.0, -222.0, -200.0, -198.0, -188.0, -164.0, -142.0, -116.0, -110.0, -114.0, -130.0, -146.0, -138.0, -118.0, -112.0, -144.0, -122.0, -146.0, -162.0, -158.0, -196.0, -246.0, -280.0, -316.0, -286.0, -250.0, -258.0, -276.0, -280.0, -340.0, -390.0, -412.0, -448.0, -454.0, -458.0, -394.0, -436.0, -386.0], "WindowWidth": [4948.0, 4958.0, 4970.0, 4980.0, 4990.0, 5034.0, 5656.0, 5048.0, 4954.0, 4956.0, 4936.0, 4944.0, 4830.0, 4736.0, 4650.0, 4618.0, 4622.0, 4690.0, 4662.0, 4688.0, 4564.0, 4466.0, 4344.0, 4272.0, 4212.0, 4190.0, 4204.0, 4196.0, 4150.0, 4164.0, 4120.0, 4114.0, 4086.0, 4110.0, 4096.0, 4076.0, 4100.0, 4092.0, 4082.0, 4108.0, 4070.0, 4046.0, 4074.0, 4130.0, 4134.0, 4124.0, 4174.0, 4156.0, 4194.0, 4258.0, 4246.0, 4298.0, 4350.0, 4380.0, 4460.0, 4458.0, 4536.0, 4568.0, 4622.0, 4640.0, 4746.0, 4794.0, 4870.0, 4924.0, 4996.0, 5022.0, 5050.0, 5082.0]}}}