{"AcquisitionMatrixPE": 96, "AcquisitionNumber": 1, "AcquisitionTime": "07:48:12.477500", "BaseResolution": 96, "BodyPartExamined": "BRAIN", "ConsistencyInfo": "N4_VD11D_LATEST_20110129", "ConversionSoftware": "dcm2niix", "ConversionSoftwareVersion": "v1.0.20210317", "DeviceSerialNumber": "45239", "DwellTime": 9.2e-06, "EchoNumber": 2, "EchoTime": 0.00738, "EchoTime1": 0.00492, "EchoTime2": 0.00738, "FlipAngle": 50, "ImageOrientationPatientDICOM": [0.99865, 0.0075462, 0.05139, 0.0218828, 0.836173, -0.548029], "ImageType": ["ORIGINAL", "PRIMARY", "P", "ND", "PHASE"], "ImagingFrequency": 123.193, "InPlanePhaseEncodingDirectionDICOM": "COL", "InstitutionAddress": "E 24th St. 100,Austin,Southmiddle,US,78712", "InstitutionName": "Univ of Texas at Austin", "InstitutionalDepartmentName": "IRC", "MRAcquisitionType": "2D", "MagneticFieldStrength": 3, "Manufacturer": "Siemens", "ManufacturersModelName": "Skyra", "Modality": "MR", "PartialFourier": 1, "PatientPosition": "HFS", "PercentPhaseFOV": 100, "PercentSampling": 100, "PhaseEncodingDirection": "j-", "PhaseEncodingSteps": 96, "PhaseResolution": 1, "PixelBandwidth": 565, "ProcedureStepDescription": "Poldrack2^self-scanning", "ProtocolName": "gre_field_mapping", "PulseSequenceDetails": "%SiemensSeq%\\gre_field_mapping", "ReceiveCoilActiveElements": "HEA;HEP", "ReceiveCoilName": "Head_32", "ReconMatrixPE": 96, "RepetitionTime": 0.731, "SAR": 0.121165, "ScanningSequence": "GR", "SequenceName": "*fm2d2r", "SequenceVariant": "SP", "SeriesDescription": "gre_field_mapping", "SeriesNumber": 12, "ShimSetting": [-2773, 8049, -15442, 145, -215, 112, 283, -111], "SliceThickness": 2, "SliceTiming": [0.36719, 0, 0.375, 0.01562, 0.39062, 0.02344, 0.39844, 0.03906, 0.41406, 0.04688, 0.42188, 0.05469, 0.42969, 0.07031, 0.44531, 0.07812, 0.45312, 0.08594, 0.46875, 0.10156, 0.47656, 0.10938, 0.48438, 0.11719, 0.5, 0.13281, 0.50781, 0.14062, 0.51562, 0.15625, 0.53125, 0.16406, 0.53906, 0.17188, 0.54688, 0.1875, 0.5625, 0.19531, 0.57031, 0.21094, 0.58594, 0.21875, 0.59375, 0.22656, 0.60938, 0.24219, 0.61719, 0.25, 0.625, 0.25781, 0.64062, 0.27344, 0.64844, 0.28125, 0.65625, 0.29688, 0.67188, 0.30469, 0.67969, 0.3125, 0.6875, 0.32812, 0.70312, 0.33594, 0.71094, 0.35156, 0.72656, 0.35938], "SoftwareVersions": "syngo MR D11", "SpacingBetweenSlices": 2.4, "StationName": "AWP45239", "TxRefAmp": 346.21, "dcmmeta_affine": [[-2.39259934425354, 0.05242747440934181, 0.11305522918701172, 110.15348815917969], [-0.018079442903399467, 2.0033318996429443, -1.316192626953125, -63.603919982910156], [0.12312179058790207, 1.3129849433898926, 2.0037155151367188, -103.4400405883789], [0.0, 0.0, 0.0, 1.0]], "dcmmeta_reorient_transform": [[0.0, -1.0, 0.0, 95.0], [1.0, 0.0, 0.0, 0.0], [0.0, 0.0, -1.0, 67.0], [0.0, 0.0, 0.0, 1.0]], "dcmmeta_shape": [96, 96, 68], "dcmmeta_slice_dim": 2, "dcmmeta_version": 0.6, "global": {"const": {"AcquisitionMatrix": [96, 0, 0, 96], "AcquisitionNumber": 1, "AngioFlag": "N", "BitsAllocated": 16, "BitsStored": 12, "BodyPartExamined": "BRAIN", "Columns": 96, "EchoNumbers": 2, "EchoTime": 7.38, "EchoTrainLength": 0, "FlipAngle": 50.0, "HighBit": 11, "ImageOrientationPatient": [0.99865015202756, 0.00754620259302, 0.05138996674204, 0.0218827726656, 0.8361733538927, -0.5480285270862], "ImageType": ["ORIGINAL", "PRIMARY", "P", "ND"], "ImagedNucleus": "1H", "ImagingFrequency": 123.193297, "InPlanePhaseEncodingDirection": "COL", "MRAcquisitionType": "2D", "MagneticFieldStrength": 3.0, "Manufacturer": "SIEMENS", "ManufacturerModelName": "Skyra", "Modality": "MR", "NumberOfAverages": 1.0, "NumberOfPhaseEncodingSteps": 96, "PercentPhaseFieldOfView": 100.0, "PercentSampling": 100.0, "PerformedProcedureStepStartTime": "071121.718000", "PhotometricInterpretation": "MONOCHROME2", "PixelBandwidth": 565.0, "PixelRepresentation": 0, "PixelSpacing": [2.3958332538605, 2.3958332538605], "ProtocolName": "gre_field_mapping", "RepetitionTime": 731.0, "RescaleIntercept": -4096.0, "RescaleSlope": 2.0, "RescaleType": "US", "Rows": 96, "SAR": 0.12116466387462, "SamplesPerPixel": 1, "ScanningSequence": "GR", "SequenceName": "*fm2d2r", "SequenceVariant": "SP", "SeriesDescription": "gre_field_mapping", "SeriesNumber": 12, "SeriesTime": "075442.937000", "SliceThickness": 2.0, "SoftwareVersions": "syngo MR D11", "SpacingBetweenSlices": 2.4, "SpecificCharacterSet": "ISO_IR 100", "StudyID": "1", "StudyTime": "071121.640000", "TransmitCoilName": "Body", "VariableFlipAngleFlag": "N", "WindowCenterWidthExplanation": "Algo1", "dBdt": 0.0}, "slices": {"AcquisitionTime": ["074812.477500", "074812.112500", "074812.487500", "074812.122500", "074812.500000", "074812.135000", "074812.510000", "074812.145000", "074812.520000", "074812.155000", "074812.532500", "074812.165000", "074812.542500", "074812.177500", "074812.552500", "074812.187500", "074812.565000", "074812.197500", "074812.575000", "074812.210000", "074812.585000", "074812.220000", "074812.595000", "074812.230000", "074812.607500", "074812.242500", "074812.617500", "074812.252500", "074812.627500", "074812.262500", "074812.640000", "074812.272500", "074812.650000", "074812.285000", "074812.660000", "074812.295000", "074812.672500", "074812.305000", "074812.682500", "074812.317500", "074812.692500", "074812.327500", "074812.702500", "074812.337500", "074812.715000", "074812.350000", "074812.725000", "074812.360000", "074812.735000", "074812.370000", "074812.747500", "074812.380000", "074812.757500", "074812.392500", "074812.767500", "074812.402500", "074812.780000", "074812.412500", "074812.790000", "074812.425000", "074812.800000", "074812.435000", "074812.810000", "074812.445000", "074812.822500", "074812.457500", "074812.832500", "074812.467500"], "ContentTime": ["075444.734000", "075442.937000", "075444.734000", "075442.937000", "075444.734000", "075442.953000", "075444.734000", "075442.953000", "075444.734000", "075442.953000", "075444.734000", "075442.953000", "075444.734000", "075442.953000", "075444.750000", "075442.953000", "075444.750000", "075442.953000", "075444.750000", "075442.968000", "075444.750000", "075442.968000", "075444.750000", "075442.968000", "075444.750000", "075442.968000", "075444.750000", "075442.984000", "075444.750000", "075443.000000", "075444.765000", "075443.000000", "075444.765000", "075443.015000", "075444.765000", "075443.015000", "075444.765000", "075443.015000", "075444.765000", "075443.015000", "075444.765000", "075443.015000", "075444.781000", "075443.015000", "075444.781000", "075443.046000", "075444.781000", "075443.046000", "075444.781000", "075443.046000", "075444.781000", "075444.593000", "075444.781000", "075444.593000", "075444.781000", "075444.593000", "075444.781000", "075444.593000", "075444.796000", "075444.609000", "075444.796000", "075444.609000", "075444.796000", "075444.609000", "075444.796000", "075444.609000", "075444.796000", "075444.734000"], "CsaImage.ICE_Dims": ["X_2_1_1_1_1_1_35_1_1_1_1_35", "X_2_1_1_1_1_1_1_1_1_2_1_35", "X_2_1_1_1_1_1_36_1_1_3_1_35", "X_2_1_1_1_1_1_2_1_1_4_1_35", "X_2_1_1_1_1_1_37_1_1_5_1_35", "X_2_1_1_1_1_1_3_1_1_6_1_35", "X_2_1_1_1_1_1_38_1_1_7_1_35", "X_2_1_1_1_1_1_4_1_1_8_1_35", "X_2_1_1_1_1_1_39_1_1_9_1_35", "X_2_1_1_1_1_1_5_1_1_10_1_35", "X_2_1_1_1_1_1_40_1_1_11_1_35", "X_2_1_1_1_1_1_6_1_1_12_1_35", "X_2_1_1_1_1_1_41_1_1_13_1_35", "X_2_1_1_1_1_1_7_1_1_14_1_35", "X_2_1_1_1_1_1_42_1_1_15_1_35", "X_2_1_1_1_1_1_8_1_1_16_1_35", "X_2_1_1_1_1_1_43_1_1_17_1_35", "X_2_1_1_1_1_1_9_1_1_18_1_35", "X_2_1_1_1_1_1_44_1_1_19_1_35", "X_2_1_1_1_1_1_10_1_1_20_1_35", "X_2_1_1_1_1_1_45_1_1_21_1_35", "X_2_1_1_1_1_1_11_1_1_22_1_35", "X_2_1_1_1_1_1_46_1_1_23_1_35", "X_2_1_1_1_1_1_12_1_1_24_1_35", "X_2_1_1_1_1_1_47_1_1_25_1_35", "X_2_1_1_1_1_1_13_1_1_26_1_35", "X_2_1_1_1_1_1_48_1_1_27_1_35", "X_2_1_1_1_1_1_14_1_1_28_1_35", "X_2_1_1_1_1_1_49_1_1_29_1_35", "X_2_1_1_1_1_1_15_1_1_30_1_35", "X_2_1_1_1_1_1_50_1_1_31_1_35", "X_2_1_1_1_1_1_16_1_1_32_1_35", "X_2_1_1_1_1_1_51_1_1_33_1_35", "X_2_1_1_1_1_1_17_1_1_34_1_35", "X_2_1_1_1_1_1_52_1_1_35_1_35", "X_2_1_1_1_1_1_18_1_1_36_1_35", "X_2_1_1_1_1_1_53_1_1_37_1_35", "X_2_1_1_1_1_1_19_1_1_38_1_35", "X_2_1_1_1_1_1_54_1_1_39_1_35", "X_2_1_1_1_1_1_20_1_1_40_1_35", "X_2_1_1_1_1_1_55_1_1_41_1_35", "X_2_1_1_1_1_1_21_1_1_42_1_35", "X_2_1_1_1_1_1_56_1_1_43_1_35", "X_2_1_1_1_1_1_22_1_1_44_1_35", "X_2_1_1_1_1_1_57_1_1_45_1_35", "X_2_1_1_1_1_1_23_1_1_46_1_35", "X_2_1_1_1_1_1_58_1_1_47_1_35", "X_2_1_1_1_1_1_24_1_1_48_1_35", "X_2_1_1_1_1_1_59_1_1_49_1_35", "X_2_1_1_1_1_1_25_1_1_50_1_35", "X_2_1_1_1_1_1_60_1_1_51_1_35", "X_2_1_1_1_1_1_26_1_1_52_1_35", "X_2_1_1_1_1_1_61_1_1_53_1_35", "X_2_1_1_1_1_1_27_1_1_54_1_35", "X_2_1_1_1_1_1_62_1_1_55_1_35", "X_2_1_1_1_1_1_28_1_1_56_1_35", "X_2_1_1_1_1_1_63_1_1_57_1_35", "X_2_1_1_1_1_1_29_1_1_58_1_35", "X_2_1_1_1_1_1_64_1_1_59_1_35", "X_2_1_1_1_1_1_30_1_1_60_1_35", "X_2_1_1_1_1_1_65_1_1_61_1_35", "X_2_1_1_1_1_1_31_1_1_62_1_35", "X_2_1_1_1_1_1_66_1_1_63_1_35", "X_2_1_1_1_1_1_32_1_1_64_1_35", "X_2_1_1_1_1_1_67_1_1_65_1_35", "X_2_1_1_1_1_1_33_1_1_66_1_35", "X_2_1_1_1_1_1_68_1_1_67_1_35", "X_2_1_1_1_1_1_34_1_1_68_1_35"], "CsaImage.ProtocolSliceNumber": [0, 1, 2, 3, 4, 5, 6, 7, 8, 9, 10, 11, 12, 13, 14, 15, 16, 17, 18, 19, 20, 21, 22, 23, 24, 25, 26, 27, 28, 29, 30, 31, 32, 33, 34, 35, 36, 37, 38, 39, 40, 41, 42, 43, 44, 45, 46, 47, 48, 49, 50, 51, 52, 53, 54, 55, 56, 57, 58, 59, 60, 61, 62, 63, 64, 65, 66, 67], "CsaImage.SlicePosition_PCS": [[-115.13408027, -126.71257167, 21.29384484], [-115.24713574, -125.39638095, 23.29755654], [-115.3601912, -124.08018833, 25.30126633], [-115.47324679, -122.7639957, 27.30497803], [-115.58630226, -121.44780498, 29.30868782], [-115.69935773, -120.13161235, 31.31239953], [-115.81241319, -118.81541973, 33.31610932], [-115.92546866, -117.4992271, 35.31982102], [-116.03852413, -116.18303638, 37.32353272], [-116.1515796, -114.86684375, 39.32724251], [-116.26463506, -113.55065113, 41.33095326], [-116.37769059, -112.23446041, 43.33466401], [-116.49074606, -110.91826778, 45.33837475], [-116.60380153, -109.60207611, 47.3420855], [-116.71685705, -108.28588443, 49.34579672], [-116.82991252, -106.96969181, 51.34950747], [-116.94296799, -105.65350013, 53.35321845], [-117.05602349, -104.33730798, 55.3569292], [-117.16907897, -103.02111583, 57.36064005], [-117.28213444, -101.70492416, 59.36435093], [-117.39518993, -100.38873201, 61.36806168], [-117.50824542, -99.0725401, 63.37177243], [-117.62130088, -97.75634801, 65.37548317], [-117.73435638, -96.44015604, 67.37919392], [-117.84741185, -95.12396401, 69.38290467], [-117.96046732, -93.80777197, 71.38661541], [-118.07352284, -92.49158006, 73.39032616], [-118.18657831, -91.17538791, 75.39403786], [-118.29963378, -89.85919624, 77.39774765], [-118.41268931, -88.54300361, 79.40145935], [-118.52574477, -87.22681194, 81.40516915], [-118.63880024, -85.91062027, 83.40888085], [-118.75185571, -84.59442764, 85.41259255], [-118.86491118, -83.27823597, 87.41630234], [-118.97796665, -81.96204429, 89.42001213], [-119.09102211, -80.64585262, 91.42372384], [-119.20407758, -79.32965999, 93.42743554], [-119.31713317, -78.01346737, 95.43114724], [-119.43018852, -76.69727665, 97.43485512], [-119.54324398, -75.38108402, 99.43856682], [-119.65629945, -74.06489139, 101.44227852], [-119.76935516, -72.74870067, 103.44599022], [-119.88241062, -71.43250805, 105.44969811], [-119.99546609, -70.11631542, 107.45340981], [-120.10852156, -68.8001247, 109.45712151], [-120.22157703, -67.48393207, 111.46083321], [-120.33463249, -66.16773944, 113.46454491], [-120.44768796, -64.85154873, 115.4682528], [-120.56074343, -63.5353561, 117.4719645], [-120.6737989, -62.21916347, 119.4756762], [-120.78685437, -60.90297084, 121.47938408], [-120.89990983, -59.58677822, 123.4830996], [-121.0129653, -58.27058941, 125.48680748], [-121.12602077, -56.95439678, 127.49051537], [-121.23907624, -55.63820415, 129.49423088], [-121.3521317, -54.32201152, 131.49793877], [-121.46518717, -53.0058189, 133.50165429], [-121.57824288, -51.68962627, 135.50536217], [-121.69129811, -50.37343746, 137.50907006], [-121.80435381, -49.05724483, 139.51278557], [-121.91740904, -47.7410522, 141.51649346], [-122.03046475, -46.42485958, 143.52020897], [-122.14351998, -45.10866695, 145.52391686], [-122.25657568, -43.79247432, 147.52762474], [-122.36963091, -42.47628551, 149.53134026], [-122.48268662, -41.16009288, 151.53504815], [-122.59574232, -39.84390026, 153.53875603], [-122.70879755, -38.52770763, 155.54247155]], "CsaImage.TimeAfterStart": [1.1, 0.7325, 1.11, 0.745, 1.12, 0.755, 1.13, 0.765, 1.1425, 0.7775, 1.1525, 0.7875, 1.1625, 0.7975, 1.175, 0.8075, 1.185, 0.82, 1.195, 0.83, 1.2075, 0.84, 1.2175, 0.8525, 1.2275, 0.8625, 1.2375, 0.8725, 1.25, 0.885, 1.26, 0.895, 1.27, 0.905, 1.2825, 0.915, 1.2925, 0.9275, 1.3025, 0.9375, 1.315, 0.9475, 1.325, 0.96, 1.335, 0.97, 1.345, 0.98, 1.3575, 0.9925, 1.3675, 1.0025, 1.3775, 1.0125, 1.39, 1.0225, 1.4, 1.035, 1.41, 1.045, 1.4225, 1.055, 1.4325, 1.0675, 1.4425, 1.0775, 1.4525, 1.0875], "ImagePositionPatient": [[-115.13408026964, -126.71257167454, 21.293844837535], [-115.24713573725, -125.39638095494, 23.297556537975], [-115.36019120485, -124.08018832798, 25.301266331066], [-115.47324679167, -122.76399570103, 27.304978031505], [-115.58630225927, -121.44780498143, 29.308687824596], [-115.69935772688, -120.13161235447, 31.312399525035], [-115.81241319448, -118.81541972752, 33.316109318126], [-115.92546866209, -117.49922710057, 35.319821018566], [-116.0385241297, -116.18303638096, 37.323532719005], [-116.1515795973, -114.86684375401, 39.327242512096], [-116.26463506491, -113.55065112705, 41.330953258861], [-116.37769059212, -112.23446040745, 43.334664005626], [-116.49074605972, -110.9182677805, 45.338374752391], [-116.60380152733, -109.60207610722, 47.342085499156], [-116.71685705454, -108.28588443394, 49.345796722759], [-116.82991252214, -106.96969180699, 51.349507469524], [-116.94296798975, -105.65350013371, 53.353218454708], [-117.05602348716, -104.33730798359, 55.356929201473], [-117.16907896966, -103.02111583348, 57.360640052546], [-117.28213444472, -101.7049241602, 59.364350933422], [-117.39518992723, -100.38873201008, 61.368061680187], [-117.50824541718, -99.072540098384, 63.371772426952], [-117.62130088479, -97.756348007872, 65.375483173717], [-117.7343563822, -96.44015603657, 67.379193920482], [-117.8474118498, -95.123964005664, 69.382904667247], [-117.96046731741, -93.807771974757, 71.386615414012], [-118.07352284462, -92.49158006306, 73.390326160777], [-118.18657831223, -91.175387912944, 75.394037861217], [-118.29963377983, -89.859196239665, 77.397747654308], [-118.41268930704, -88.543003612712, 79.401459354747], [-118.52574477465, -87.226811939433, 81.405169147838], [-118.63880024225, -85.910620266154, 83.408880848277], [-118.75185570986, -84.594427639201, 85.412592548717], [-118.86491117746, -83.278235965922, 87.416302341808], [-118.97796664507, -81.962044292643, 89.420012134899], [-119.09102211267, -80.645852619365, 91.423723835338], [-119.20407758028, -79.329659992411, 93.427435535777], [-119.3171331671, -78.013467365458, 95.431147236217], [-119.43018851549, -76.697276645854, 97.434855121959], [-119.5432439831, -75.381084018901, 99.438566822399], [-119.6562994507, -74.064891391948, 101.44227852284], [-119.76935515673, -72.748700672343, 103.44599022328], [-119.88241062433, -71.43250804539, 105.44969810902], [-119.99546609194, -70.116315418437, 107.45340980946], [-120.10852155954, -68.800124698832, 109.4571215099], [-120.22157702715, -67.483932071879, 111.46083321034], [-120.33463249475, -66.167739444926, 113.46454491078], [-120.44768796236, -64.851548725322, 115.46825279652], [-120.56074342997, -63.535356098368, 117.47196449696], [-120.67379889757, -62.219163471415, 119.4756761974], [-120.78685436518, -60.902970844462, 121.47938408314], [-120.89990983278, -59.586778217509, 123.48309959828], [-121.01296530039, -58.270589405253, 125.48680748402], [-121.12602076799, -56.9543967783, 127.49051536976], [-121.2390762356, -55.638204151347, 129.4942308849], [-121.3521317032, -54.322011524394, 131.49793877064], [-121.46518717081, -53.005818897441, 133.50165428578], [-121.57824287683, -51.689626270488, 135.50536217152], [-121.69129810602, -50.373437458232, 137.50907005726], [-121.80435381205, -49.057244831279, 139.5127855724], [-121.91740904123, -47.741052204325, 141.51649345814], [-122.03046474726, -46.424859577372, 143.52020897328], [-122.14351997644, -45.108666950419, 145.52391685902], [-122.25657568247, -43.792474323466, 147.52762474476], [-122.36963091166, -42.47628551121, 149.5313402599], [-122.48268661768, -41.160092884257, 151.53504814564], [-122.5957423237, -39.843900257304, 153.53875603138], [-122.70879755289, -38.527707630351, 155.54247154652]], "InstanceCreationTime": ["075444.734000", "075442.937000", "075444.734000", "075442.937000", "075444.734000", "075442.953000", "075444.734000", "075442.953000", "075444.734000", "075442.953000", "075444.734000", "075442.953000", "075444.734000", "075442.953000", "075444.750000", "075442.953000", "075444.750000", "075442.953000", "075444.750000", "075442.968000", "075444.750000", "075442.968000", "075444.750000", "075442.968000", "075444.750000", "075442.968000", "075444.750000", "075442.984000", "075444.750000", "075443.000000", "075444.765000", "075443.000000", "075444.765000", "075443.015000", "075444.765000", "075443.015000", "075444.765000", "075443.015000", "075444.765000", "075443.015000", "075444.765000", "075443.015000", "075444.781000", "075443.015000", "075444.781000", "075443.046000", "075444.781000", "075443.046000", "075444.781000", "075443.046000", "075444.781000", "075444.593000", "075444.781000", "075444.593000", "075444.781000", "075444.593000", "075444.781000", "075444.593000", "075444.796000", "075444.609000", "075444.796000", "075444.609000", "075444.796000", "075444.609000", "075444.796000", "075444.609000", "075444.796000", "075444.734000"], "InstanceNumber": [1, 2, 3, 4, 5, 6, 7, 8, 9, 10, 11, 12, 13, 14, 15, 16, 17, 18, 19, 20, 21, 22, 23, 24, 25, 26, 27, 28, 29, 30, 31, 32, 33, 34, 35, 36, 37, 38, 39, 40, 41, 42, 43, 44, 45, 46, 47, 48, 49, 50, 51, 52, 53, 54, 55, 56, 57, 58, 59, 60, 61, 62, 63, 64, 65, 66, 67, 68], "LargestImagePixelValue": [4094, 4094, 4094, 4094, 4094, 4094, 4090, 4094, 4094, 4093, 4094, 4094, 4094, 4093, 4094, 4094, 4093, 4093, 4094, 4094, 4094, 4094, 4091, 4093, 4094, 4092, 4094, 4094, 4093, 4094, 4087, 4089, 4093, 4091, 4094, 4086, 4093, 4093, 4091, 4092, 4093, 4093, 4092, 4094, 4085, 4090, 4094, 4092, 4092, 4094, 4094, 4093, 4094, 4089, 4090, 4094, 4092, 4087, 4094, 4089, 4094, 4092, 4094, 4093, 4090, 4093, 4094, 4091], "SliceLocation": [-46.289509744828, -43.889509718244, -41.489510238051, -39.089509159836, -36.689510725658, -34.289509653058, -31.889510172865, -29.489509100265, -27.089509073681, -24.689509593488, -22.289509317091, -19.889510083903, -17.489509807506, -15.089510054117, -12.689509899819, -10.289509623423, -7.8895096709834, -5.4895096546869, -3.0895095520077, -0.6895096863019, 1.7104903292927, 4.1104902144862, 6.5104901966909, 8.9104901149234, 11.31049006444, 13.710490013957, 16.110489900905, 18.510490712001, 20.910489669186, 23.310490744594, 25.710489701779, 28.110490251371, 30.510491323971, 32.910490281156, 35.310489238342, 37.710489787934, 40.110490860534, 42.510491938749, 44.910488774905, 47.310489847504, 49.710490920104, 52.110490957919, 54.510488845706, 56.910489918306, 59.31048994489, 61.71049101749, 64.110492090089, 66.510488931861, 68.91049000446, 71.31049107706, 73.710488964847, 76.110493222259, 78.510489018015, 80.910486905802, 83.310491163215, 85.710489051002, 88.110493308414, 90.510491207432, 92.910486991957, 95.3104912606, 97.710489137156, 100.1104934058, 102.51049128236, 104.91048918137, 107.31049133552, 109.71048923454, 112.11048713356, 114.51049137974], "SmallestImagePixelValue": [0, 0, 0, 0, 0, 0, 0, 0, 2, 0, 1, 4, 0, 2, 0, 0, 0, 1, 0, 0, 0, 0, 0, 6, 1, 2, 5, 1, 6, 0, 5, 0, 1, 1, 2, 1, 5, 1, 1, 1, 12, 0, 2, 2, 0, 2, 2, 4, 0, 4, 0, 0, 2, 0, 0, 0, 0, 0, 0, 4, 0, 2, 1, 1, 0, 0, 1, 0], "WindowCenter": [-458.0, -356.0, -410.0, -448.0, -306.0, -200.0, -306.0, -384.0, -512.0, -622.0, -514.0, -476.0, -474.0, -482.0, -530.0, -578.0, -594.0, -594.0, -578.0, -550.0, -470.0, -472.0, -488.0, -404.0, -406.0, -350.0, -354.0, -328.0, -330.0, -288.0, -266.0, -228.0, -234.0, -214.0, -230.0, -244.0, -214.0, -210.0, -238.0, -218.0, -188.0, -172.0, -132.0, -136.0, -132.0, -110.0, -144.0, -162.0, -178.0, -194.0, -206.0, -220.0, -262.0, -250.0, -224.0, -222.0, -250.0, -238.0, -276.0, -282.0, -330.0, -298.0, -312.0, -348.0, -394.0, -436.0, -424.0, -506.0], "WindowWidth": [5162.0, 5928.0, 5126.0, 5112.0, 5660.0, 6104.0, 6152.0, 5724.0, 5022.0, 4976.0, 4998.0, 4986.0, 4952.0, 4930.0, 4838.0, 4814.0, 4704.0, 4694.0, 4640.0, 4642.0, 4566.0, 4536.0, 4482.0, 4434.0, 4380.0, 4352.0, 4250.0, 4228.0, 4112.0, 4074.0, 4012.0, 3968.0, 3884.0, 3908.0, 3878.0, 3946.0, 3896.0, 3988.0, 4016.0, 4064.0, 4070.0, 4120.0, 4120.0, 4152.0, 4130.0, 4184.0, 4150.0, 4182.0, 4156.0, 4212.0, 4214.0, 4232.0, 4210.0, 4252.0, 4228.0, 4234.0, 4270.0, 4274.0, 4268.0, 4320.0, 4312.0, 4398.0, 4426.0, 4520.0, 4584.0, 4686.0, 4742.0, 4782.0]}}}