{"AcquisitionMatrixPE": 96, "AcquisitionNumber": 1, "AcquisitionTime": "07:51:4.710000", "BandwidthPerPixelPhaseEncode": 33.602, "BaseResolution": 96, "BodyPartExamined": "BRAIN", "ConsistencyInfo": "N4_VD11D_LATEST_20110129", "ConversionSoftware": "dcm2niix", "ConversionSoftwareVersion": "v1.0.20210317", "DerivedVendorReportedEchoSpacing": 0.000620003, "DeviceSerialNumber": "45239", "DwellTime": 2.6e-06, "EchoTime": 0.03, "EchoTrainLength": 48, "EffectiveEchoSpacing": 0.000310001, "FlipAngle": 63, "ImageComments": "Unaliased MB4/PE3", "ImageOrientationPatientDICOM": [0.998707, 0.0458648, -0.0219436, -0.0507239, 0.869148, -0.491944], "ImageType": ["ORIGINAL", "PRIMARY", "M", "ND", "NORM", "MOSAIC"], "ImagingFrequency": 123.193, "InPlanePhaseEncodingDirectionDICOM": "COL", "InstitutionAddress": "E 24th St. 100,Austin,Southmiddle,US,78712", "InstitutionName": "Univ of Texas at Austin", "InstitutionalDepartmentName": "IRC", "MRAcquisitionType": "2D", "MagneticFieldStrength": 3, "Manufacturer": "Siemens", "ManufacturersModelName": "Skyra", "Modality": "MR", "MultibandAccelerationFactor": 4, "ParallelReductionFactorInPlane": 2, "PartialFourier": 1, "PatientPosition": "HFS", "PercentPhaseFOV": 100, "PercentSampling": 100, "PhaseEncodingDirection": "j-", "PhaseEncodingSteps": 96, "PhaseResolution": 1, "PixelBandwidth": 2005, "ProcedureStepDescription": "Poldrack2^self-scanning", "ProtocolName": "Breath_Hold", "PulseSequenceDetails": "%CustomerSeq%\\cmrr_mbep2d_bold", "ReceiveCoilActiveElements": "HEA;HEP", "ReceiveCoilName": "Head_32", "ReconMatrixPE": 96, "RefLinesPE": 94, "RepetitionTime": 1.16, "SAR": 0.106644, "ScanOptions": "FS", "ScanningSequence": "EP", "SequenceName": "epfid2d1_96", "SequenceVariant": "SK", "SeriesDescription": "Breath_Hold", "SeriesNumber": 8, "ShimSetting": [-2776, 8032, -15408, 154, -98, 54, 262, -155], "SliceThickness": 2, "SliceTiming": [0, 0.5, 0.9975, 0.3575, 0.855, 0.215, 0.7125, 0.0725, 0.57, 1.0675, 0.4275, 0.925, 0.285, 0.7825, 0.1425, 0.6425, 0, 0.5, 0.9975, 0.3575, 0.855, 0.215, 0.7125, 0.0725, 0.57, 1.0675, 0.4275, 0.925, 0.285, 0.7825, 0.1425, 0.6425, 0, 0.5, 0.9975, 0.3575, 0.855, 0.215, 0.7125, 0.0725, 0.57, 1.0675, 0.4275, 0.925, 0.285, 0.7825, 0.1425, 0.6425, 0, 0.5, 0.9975, 0.3575, 0.855, 0.215, 0.7125, 0.0725, 0.57, 1.0675, 0.4275, 0.925, 0.285, 0.7825, 0.1425, 0.6425], "SoftwareVersions": "syngo MR D11", "SpacingBetweenSlices": 2.4, "StationName": "AWP45239", "TaskName": "Breath holding task", "TotalReadoutTime": 0.0294501, "TxRefAmp": 351.256, "WipMemBlock": "630b3ca1-f013-4184-a3c2-db578ed9570e||Sequence: VD11D r206; Feb 13 2013 18:52:04 by eja", "dcmmeta_affine": [[-2.3927345275878906, -0.1215260848402977, 0.00837751105427742, 121.4291000366211], [-0.10988438874483109, 2.08233380317688, -1.181809425354004, -70.76376342773438], [-0.05257328599691391, 1.1786152124404907, 2.088840961456299, -76.44495391845703], [0.0, 0.0, 0.0, 1.0]], "dcmmeta_reorient_transform": [[0.0, -1.0, 0.0, 95.0], [1.0, 0.0, 0.0, 0.0], [0.0, 0.0, 1.0, 0.0], [0.0, 0.0, 0.0, 1.0]], "dcmmeta_shape": [96, 96, 64, 318], "dcmmeta_slice_dim": 2, "dcmmeta_version": 0.6, "global": {"const": {"AcquisitionMatrix": [96, 0, 0, 96], "AngioFlag": "N", "BitsAllocated": 16, "BitsStored": 16, "BodyPartExamined": "BRAIN", "Columns": 768, "EchoNumbers": 1, "EchoTime": 30.0, "EchoTrainLength": 48, "FlipAngle": 63.0, "HighBit": 15, "ImageOrientationPatient": [0.99870661264187, 0.04586478835024, -0.0219436335869, -0.0507239329097, 0.86914809326633, -0.4919437717887], "ImagePositionPatient": [-873.01015145705, -863.64330128216, 449.20284417761], "ImageType": ["ORIGINAL", "PRIMARY", "M", "ND", "NORM", "MOSAIC"], "ImagedNucleus": "1H", "ImagingFrequency": 123.19319, "InPlanePhaseEncodingDirection": "COL", "MRAcquisitionType": "2D", "MagneticFieldStrength": 3.0, "Manufacturer": "SIEMENS", "ManufacturerModelName": "Skyra", "Modality": "MR", "NumberOfAverages": 1.0, "NumberOfPhaseEncodingSteps": 96, "PercentPhaseFieldOfView": 100.0, "PercentSampling": 100.0, "PerformedProcedureStepStartTime": "072635.812000", "PhotometricInterpretation": "MONOCHROME2", "PixelBandwidth": 2005.0, "PixelRepresentation": 0, "PixelSpacing": [2.3958332538605, 2.3958332538605], "ProtocolName": "Breath_Hold", "RepetitionTime": 1160.0, "Rows": 768, "SAR": 0.10664433364512, "SamplesPerPixel": 1, "ScanOptions": "FS", "ScanningSequence": "EP", "SequenceName": "epfid2d1_96", "SequenceVariant": "SK", "SeriesDescription": "Breath_Hold", "SeriesNumber": 8, "SeriesTime": "075143.765000", "SliceLocation": -31.264496645117, "SliceThickness": 2.0, "SmallestImagePixelValue": 0, "SoftwareVersions": "syngo MR D11", "SpacingBetweenSlices": 2.4000000356959, "SpecificCharacterSet": "ISO_IR 100", "StudyID": "1", "StudyTime": "072635.781000", "TransmitCoilName": "Body", "VariableFlipAngleFlag": "N", "WindowCenterWidthExplanation": "Algo1", "dBdt": 0.0}, "slices": {}}, "time": {"samples": {"AcquisitionNumber": [1, 2, 3, 4, 5, 6, 7, 8, 9, 10, 11, 12, 13, 14, 15, 16, 17, 18, 19, 20, 21, 22, 23, 24, 25, 26, 27, 28, 29, 30, 31, 32, 33, 34, 35, 36, 37, 38, 39, 40, 41, 42, 43, 44, 45, 46, 47, 48, 49, 50, 51, 52, 53, 54, 55, 56, 57, 58, 59, 60, 61, 62, 63, 64, 65, 66, 67, 68, 69, 70, 71, 72, 73, 74, 75, 76, 77, 78, 79, 80, 81, 82, 83, 84, 85, 86, 87, 88, 89, 90, 91, 92, 93, 94, 95, 96, 97, 98, 99, 100, 101, 102, 103, 104, 105, 106, 107, 108, 109, 110, 111, 112, 113, 114, 115, 116, 117, 118, 119, 120, 121, 122, 123, 124, 125, 126, 127, 128, 129, 130, 131, 132, 133, 134, 135, 136, 137, 138, 139, 140, 141, 142, 143, 144, 145, 146, 147, 148, 149, 150, 151, 152, 153, 154, 155, 156, 157, 158, 159, 160, 161, 162, 163, 164, 165, 166, 167, 168, 169, 170, 171, 172, 173, 174, 175, 176, 177, 178, 179, 180, 181, 182, 183, 184, 185, 186, 187, 188, 189, 190, 191, 192, 193, 194, 195, 196, 197, 198, 199, 200, 201, 202, 203, 204, 205, 206, 207, 208, 209, 210, 211, 212, 213, 214, 215, 216, 217, 218, 219, 220, 221, 222, 223, 224, 225, 226, 227, 228, 229, 230, 231, 232, 233, 234, 235, 236, 237, 238, 239, 240, 241, 242, 243, 244, 245, 246, 247, 248, 249, 250, 251, 252, 253, 254, 255, 256, 257, 258, 259, 260, 261, 262, 263, 264, 265, 266, 267, 268, 269, 270, 271, 272, 273, 274, 275, 276, 277, 278, 279, 280, 281, 282, 283, 284, 285, 286, 287, 288, 289, 290, 291, 292, 293, 294, 295, 296, 297, 298, 299, 300, 301, 302, 303, 304, 305, 306, 307, 308, 309, 310, 311, 312, 313, 314, 315, 316, 317, 318], "AcquisitionTime": ["075104.710000", "075133.710000", "075134.870000", "075136.030000", "075137.190000", "075138.350000", "075139.510000", "075140.670000", "075141.830000", "075142.990000", "075144.150000", "075145.310000", "075146.470000", "075147.630000", "075148.790000", "075149.950000", "075151.110000", "075152.270000", "075153.430000", "075154.590000", "075155.750000", "075156.910000", "075158.070000", "075159.230000", "075200.390000", "075201.550000", "075202.710000", "075203.870000", "075205.030000", "075206.190000", "075207.350000", "075208.510000", "075209.670000", "075210.830000", "075211.990000", "075213.150000", "075214.310000", "075215.470000", "075216.630000", "075217.790000", "075218.950000", "075220.110000", "075221.270000", "075222.430000", "075223.590000", "075224.750000", "075225.910000", "075227.070000", "075228.230000", "075229.390000", "075230.550000", "075231.710000", "075232.870000", "075234.030000", "075235.190000", "075236.350000", "075237.510000", "075238.670000", "075239.830000", "075240.990000", "075242.150000", "075243.310000", "075244.470000", "075245.630000", "075246.790000", "075247.950000", "075249.110000", "075250.270000", "075251.430000", "075252.590000", "075253.750000", "075254.910000", "075256.070000", "075257.230000", "075258.390000", "075259.550000", "075300.710000", "075301.870000", "075303.030000", "075304.190000", "075305.350000", "075306.510000", "075307.670000", "075308.830000", "075309.990000", "075311.150000", "075312.310000", "075313.470000", "075314.630000", "075315.790000", "075316.950000", "075318.110000", "075319.270000", "075320.430000", "075321.590000", "075322.750000", "075323.910000", "075325.072500", "075326.232500", "075327.392500", "075328.552500", "075329.712500", "075330.872500", "075332.032500", "075333.192500", "075334.352500", "075335.512500", "075336.672500", "075337.832500", "075338.992500", "075340.152500", "075341.312500", "075342.472500", "075343.632500", "075344.792500", "075345.952500", "075347.112500", "075348.272500", "075349.432500", "075350.592500", "075351.752500", "075352.912500", "075354.072500", "075355.232500", "075356.392500", "075357.552500", "075358.712500", "075359.872500", "075401.032500", "075402.192500", "075403.352500", "075404.512500", "075405.672500", "075406.832500", "075407.992500", "075409.152500", "075410.312500", "075411.472500", "075412.632500", "075413.792500", "075414.952500", "075416.112500", "075417.272500", "075418.432500", "075419.592500", "075420.752500", "075421.912500", "075423.072500", "075424.232500", "075425.392500", "075426.552500", "075427.712500", "075428.872500", "075430.032500", "075431.192500", "075432.352500", "075433.512500", "075434.672500", "075435.832500", "075436.992500", "075438.152500", "075439.312500", "075440.472500", "075441.632500", "075442.792500", "075443.952500", "075445.112500", "075446.272500", "075447.432500", "075448.592500", "075449.752500", "075450.912500", "075452.072500", "075453.232500", "075454.392500", "075455.552500", "075456.712500", "075457.872500", "075459.032500", "075500.192500", "075501.352500", "075502.512500", "075503.672500", "075504.832500", "075505.992500", "075507.152500", "075508.312500", "075509.472500", "075510.632500", "075511.792500", "075512.952500", "075514.112500", "075515.272500", "075516.432500", "075517.592500", "075518.752500", "075519.912500", "075521.072500", "075522.232500", "075523.392500", "075524.552500", "075525.712500", "075526.872500", "075528.032500", "075529.192500", "075530.352500", "075531.512500", "075532.672500", "075533.832500", "075534.992500", "075536.152500", "075537.312500", "075538.472500", "075539.632500", "075540.792500", "075541.952500", "075543.112500", "075544.272500", "075545.432500", "075546.592500", "075547.752500", "075548.912500", "075550.072500", "075551.232500", "075552.392500", "075553.552500", "075554.712500", "075555.872500", "075557.032500", "075558.192500", "075559.352500", "075600.512500", "075601.672500", "075602.832500", "075603.992500", "075605.152500", "075606.312500", "075607.472500", "075608.632500", "075609.792500", "075610.952500", "075612.112500", "075613.272500", "075614.432500", "075615.592500", "075616.752500", "075617.912500", "075619.072500", "075620.232500", "075621.392500", "075622.552500", "075623.712500", "075624.872500", "075626.032500", "075627.192500", "075628.352500", "075629.512500", "075630.672500", "075631.832500", "075632.992500", "075634.152500", "075635.312500", "075636.472500", "075637.632500", "075638.792500", "075639.952500", "075641.112500", "075642.272500", "075643.432500", "075644.592500", "075645.752500", "075646.912500", "075648.072500", "075649.232500", "075650.392500", "075651.552500", "075652.712500", "075653.872500", "075655.032500", "075656.192500", "075657.352500", "075658.512500", "075659.672500", "075700.832500", "075701.992500", "075703.152500", "075704.312500", "075705.472500", "075706.632500", "075707.792500", "075708.952500", "075710.112500", "075711.272500", "075712.432500", "075713.592500", "075714.752500", "075715.912500", "075717.072500", "075718.232500", "075719.392500", "075720.552500", "075721.712500", "075722.872500", "075724.032500", "075725.192500", "075726.352500", "075727.512500", "075728.672500", "075729.832500", "075730.992500", "075732.152500", "075733.312500", "075734.472500", "075735.632500", "075736.792500", "075737.952500", "075739.112500", "075740.272500"], "ContentTime": ["075143.765000", "075152.843000", "075152.843000", "075152.843000", "075152.843000", "075152.843000", "075152.859000", "075152.859000", "075157.843000", "075157.843000", "075157.843000", "075157.843000", "075202.843000", "075202.843000", "075202.843000", "075207.843000", "075207.843000", "075207.843000", "075207.843000", "075212.843000", "075212.843000", "075212.843000", "075217.843000", "075217.843000", "075217.843000", "075217.843000", "075222.843000", "075222.843000", "075222.843000", "075222.843000", "075227.843000", "075227.843000", "075227.843000", "075232.843000", "075232.843000", "075232.859000", "075232.859000", "075237.843000", "075237.843000", "075237.843000", "075237.843000", "075242.843000", "075242.843000", "075242.843000", "075242.843000", "075247.843000", "075247.843000", "075247.843000", "075252.843000", "075252.843000", "075252.843000", "075252.843000", "075257.843000", "075257.843000", "075257.843000", "075257.843000", "075302.843000", "075302.843000", "075302.843000", "075307.843000", "075307.843000", "075307.843000", "075307.843000", "075312.843000", "075312.843000", "075312.843000", "075312.859000", "075317.843000", "075317.843000", "075317.843000", "075317.843000", "075322.843000", "075322.843000", "075322.843000", "075322.843000", "075327.843000", "075327.843000", "075327.843000", "075332.843000", "075332.843000", "075332.859000", "075332.859000", "075337.843000", "075337.843000", "075337.843000", "075342.843000", "075342.843000", "075342.843000", "075342.843000", "075347.843000", "075347.843000", "075347.843000", "075352.843000", "075352.843000", "075352.859000", "075352.859000", "075352.859000", "075357.843000", "075357.843000", "075357.843000", "075402.843000", "075402.843000", "075402.859000", "075402.859000", "075407.843000", "075407.843000", "075407.843000", "075407.843000", "075412.843000", "075412.843000", "075412.843000", "075417.843000", "075417.843000", "075417.843000", "075417.859000", "075422.843000", "075422.843000", "075422.859000", "075422.859000", "075427.843000", "075427.875000", "075427.875000", "075432.843000", "075432.843000", "075432.843000", "075432.859000", "075437.843000", "075437.843000", "075437.843000", "075437.843000", "075442.843000", "075442.843000", "075442.843000", "075447.843000", "075447.843000", "075447.843000", "075447.843000", "075452.843000", "075452.843000", "075452.843000", "075457.843000", "075457.843000", "075457.843000", "075457.843000", "075502.843000", "075502.843000", "075502.843000", "075502.843000", "075507.843000", "075507.843000", "075507.843000", "075507.843000", "075512.843000", "075512.843000", "075512.843000", "075517.843000", "075517.843000", "075517.843000", "075517.859000", "075522.843000", "075522.843000", "075522.843000", "075522.843000", "075527.843000", "075527.843000", "075527.843000", "075527.843000", "075532.843000", "075532.843000", "075532.843000", "075537.843000", "075537.843000", "075537.843000", "075537.843000", "075542.843000", "075542.843000", "075542.843000", "075542.843000", "075547.843000", "075547.843000", "075547.843000", "075547.843000", "075552.843000", "075552.843000", "075552.843000", "075552.843000", "075557.843000", "075557.843000", "075557.843000", "075602.843000", "075602.843000", "075602.843000", "075602.843000", "075607.843000", "075607.843000", "075607.843000", "075612.843000", "075612.843000", "075612.843000", "075612.859000", "075617.843000", "075617.843000", "075617.843000", "075617.843000", "075622.843000", "075622.843000", "075622.843000", "075627.843000", "075627.843000", "075627.843000", "075627.859000", "075632.843000", "075632.843000", "075632.843000", "075632.843000", "075637.843000", "075637.843000", "075637.843000", "075637.859000", "075642.843000", "075642.843000", "075642.843000", "075647.843000", "075647.843000", "075647.843000", "075647.859000", "075652.843000", "075652.843000", "075652.843000", "075652.843000", "075657.843000", "075657.843000", "075657.843000", "075657.859000", "075702.843000", "075702.843000", "075702.843000", "075707.843000", "075707.843000", "075707.843000", "075707.843000", "075712.843000", "075712.843000", "075712.843000", "075717.843000", "075717.843000", "075717.843000", "075717.859000", "075722.843000", "075722.843000", "075722.843000", "075727.843000", "075727.843000", "075727.843000", "075727.859000", "075732.843000", "075732.843000", "075732.843000", "075732.843000", "075737.843000", "075737.843000", "075737.843000", "075742.843000", "075742.843000", "075742.843000", "075742.843000", "075747.843000", "075747.843000", "075747.843000", "075747.843000", "075747.843000", "075752.843000", "075752.843000", "075752.843000", "075757.843000", "075757.843000", "075757.843000", "075757.843000", "075802.843000", "075802.843000", "075802.906000", "075802.906000", "075807.843000", "075807.843000", "075807.843000", "075807.859000", "075812.843000", "075812.843000", "075812.843000", "075812.843000", "075817.843000", "075817.843000", "075817.843000", "075817.843000", "075822.843000", "075822.843000", "075822.843000", "075822.843000", "075827.843000", "075827.843000", "075827.843000", "075827.843000", "075832.843000", "075832.843000", "075832.843000", "075832.843000", "075837.843000", "075837.843000", "075837.843000", "075837.843000", "075842.843000", "075842.843000", "075842.843000", "075842.843000", "075847.109000", "075847.125000", "075847.125000", "075847.125000"], "InstanceCreationTime": ["075143.765000", "075152.843000", "075152.843000", "075152.843000", "075152.843000", "075152.843000", "075152.859000", "075152.859000", "075157.843000", "075157.843000", "075157.843000", "075157.843000", "075202.843000", "075202.843000", "075202.843000", "075207.843000", "075207.843000", "075207.843000", "075207.843000", "075212.843000", "075212.843000", "075212.843000", "075217.843000", "075217.843000", "075217.843000", "075217.843000", "075222.843000", "075222.843000", "075222.843000", "075222.843000", "075227.843000", "075227.843000", "075227.843000", "075232.843000", "075232.843000", "075232.859000", "075232.859000", "075237.843000", "075237.843000", "075237.843000", "075237.843000", "075242.843000", "075242.843000", "075242.843000", "075242.843000", "075247.843000", "075247.843000", "075247.843000", "075252.843000", "075252.843000", "075252.843000", "075252.843000", "075257.843000", "075257.843000", "075257.843000", "075257.843000", "075302.843000", "075302.843000", "075302.843000", "075307.843000", "075307.843000", "075307.843000", "075307.843000", "075312.843000", "075312.843000", "075312.843000", "075312.859000", "075317.843000", "075317.843000", "075317.843000", "075317.843000", "075322.843000", "075322.843000", "075322.843000", "075322.843000", "075327.843000", "075327.843000", "075327.843000", "075332.843000", "075332.843000", "075332.859000", "075332.859000", "075337.843000", "075337.843000", "075337.843000", "075342.843000", "075342.843000", "075342.843000", "075342.843000", "075347.843000", "075347.843000", "075347.843000", "075352.843000", "075352.843000", "075352.859000", "075352.859000", "075352.859000", "075357.843000", "075357.843000", "075357.843000", "075402.843000", "075402.843000", "075402.859000", "075402.859000", "075407.843000", "075407.843000", "075407.843000", "075407.843000", "075412.843000", "075412.843000", "075412.843000", "075417.843000", "075417.843000", "075417.843000", "075417.859000", "075422.843000", "075422.843000", "075422.859000", "075422.859000", "075427.843000", "075427.875000", "075427.875000", "075432.843000", "075432.843000", "075432.843000", "075432.859000", "075437.843000", "075437.843000", "075437.843000", "075437.843000", "075442.843000", "075442.843000", "075442.843000", "075447.843000", "075447.843000", "075447.843000", "075447.843000", "075452.843000", "075452.843000", "075452.843000", "075457.843000", "075457.843000", "075457.843000", "075457.843000", "075502.843000", "075502.843000", "075502.843000", "075502.843000", "075507.843000", "075507.843000", "075507.843000", "075507.843000", "075512.843000", "075512.843000", "075512.843000", "075517.843000", "075517.843000", "075517.843000", "075517.859000", "075522.843000", "075522.843000", "075522.843000", "075522.843000", "075527.843000", "075527.843000", "075527.843000", "075527.843000", "075532.843000", "075532.843000", "075532.843000", "075537.843000", "075537.843000", "075537.843000", "075537.843000", "075542.843000", "075542.843000", "075542.843000", "075542.843000", "075547.843000", "075547.843000", "075547.843000", "075547.843000", "075552.843000", "075552.843000", "075552.843000", "075552.843000", "075557.843000", "075557.843000", "075557.843000", "075602.843000", "075602.843000", "075602.843000", "075602.843000", "075607.843000", "075607.843000", "075607.843000", "075612.843000", "075612.843000", "075612.843000", "075612.859000", "075617.843000", "075617.843000", "075617.843000", "075617.843000", "075622.843000", "075622.843000", "075622.843000", "075627.843000", "075627.843000", "075627.843000", "075627.859000", "075632.843000", "075632.843000", "075632.843000", "075632.843000", "075637.843000", "075637.843000", "075637.843000", "075637.859000", "075642.843000", "075642.843000", "075642.843000", "075647.843000", "075647.843000", "075647.843000", "075647.859000", "075652.843000", "075652.843000", "075652.843000", "075652.843000", "075657.843000", "075657.843000", "075657.843000", "075657.859000", "075702.843000", "075702.843000", "075702.843000", "075707.843000", "075707.843000", "075707.843000", "075707.843000", "075712.843000", "075712.843000", "075712.843000", "075717.843000", "075717.843000", "075717.843000", "075717.859000", "075722.843000", "075722.843000", "075722.843000", "075727.843000", "075727.843000", "075727.843000", "075727.859000", "075732.843000", "075732.843000", "075732.843000", "075732.843000", "075737.843000", "075737.843000", "075737.843000", "075742.843000", "075742.843000", "075742.843000", "075742.843000", "075747.843000", "075747.843000", "075747.843000", "075747.843000", "075747.843000", "075752.843000", "075752.843000", "075752.843000", "075757.843000", "075757.843000", "075757.843000", "075757.843000", "075802.843000", "075802.843000", "075802.906000", "075802.906000", "075807.843000", "075807.843000", "075807.843000", "075807.859000", "075812.843000", "075812.843000", "075812.843000", "075812.843000", "075817.843000", "075817.843000", "075817.843000", "075817.843000", "075822.843000", "075822.843000", "075822.843000", "075822.843000", "075827.843000", "075827.843000", "075827.843000", "075827.843000", "075832.843000", "075832.843000", "075832.843000", "075832.843000", "075837.843000", "075837.843000", "075837.843000", "075837.843000", "075842.843000", "075842.843000", "075842.843000", "075842.843000", "075847.109000", "075847.125000", "075847.125000", "075847.125000"], "InstanceNumber": [1, 2, 3, 4, 5, 6, 7, 8, 9, 10, 11, 12, 13, 14, 15, 16, 17, 18, 19, 20, 21, 22, 23, 24, 25, 26, 27, 28, 29, 30, 31, 32, 33, 34, 35, 36, 37, 38, 39, 40, 41, 42, 43, 44, 45, 46, 47, 48, 49, 50, 51, 52, 53, 54, 55, 56, 57, 58, 59, 60, 61, 62, 63, 64, 65, 66, 67, 68, 69, 70, 71, 72, 73, 74, 75, 76, 77, 78, 79, 80, 81, 82, 83, 84, 85, 86, 87, 88, 89, 90, 91, 92, 93, 94, 95, 96, 97, 98, 99, 100, 101, 102, 103, 104, 105, 106, 107, 108, 109, 110, 111, 112, 113, 114, 115, 116, 117, 118, 119, 120, 121, 122, 123, 124, 125, 126, 127, 128, 129, 130, 131, 132, 133, 134, 135, 136, 137, 138, 139, 140, 141, 142, 143, 144, 145, 146, 147, 148, 149, 150, 151, 152, 153, 154, 155, 156, 157, 158, 159, 160, 161, 162, 163, 164, 165, 166, 167, 168, 169, 170, 171, 172, 173, 174, 175, 176, 177, 178, 179, 180, 181, 182, 183, 184, 185, 186, 187, 188, 189, 190, 191, 192, 193, 194, 195, 196, 197, 198, 199, 200, 201, 202, 203, 204, 205, 206, 207, 208, 209, 210, 211, 212, 213, 214, 215, 216, 217, 218, 219, 220, 221, 222, 223, 224, 225, 226, 227, 228, 229, 230, 231, 232, 233, 234, 235, 236, 237, 238, 239, 240, 241, 242, 243, 244, 245, 246, 247, 248, 249, 250, 251, 252, 253, 254, 255, 256, 257, 258, 259, 260, 261, 262, 263, 264, 265, 266, 267, 268, 269, 270, 271, 272, 273, 274, 275, 276, 277, 278, 279, 280, 281, 282, 283, 284, 285, 286, 287, 288, 289, 290, 291, 292, 293, 294, 295, 296, 297, 298, 299, 300, 301, 302, 303, 304, 305, 306, 307, 308, 309, 310, 311, 312, 313, 314, 315, 316, 317, 318], "LargestImagePixelValue": [34010, 28531, 28625, 33957, 26753, 27960, 27861, 33797, 26845, 32071, 26486, 27158, 30245, 32256, 27024, 34415, 26533, 26794, 29965, 33386, 26906, 29759, 26703, 26992, 26655, 34720, 27880, 28489, 28947, 26700, 26709, 32697, 26871, 28656, 32578, 28210, 26610, 28456, 26983, 26682, 33173, 30758, 26746, 26989, 33266, 26885, 26744, 31621, 26781, 26938, 33256, 26882, 27853, 31765, 27033, 33187, 26398, 26338, 33578, 26845, 31668, 28908, 31827, 32717, 26490, 29988, 30698, 28682, 28713, 36090, 32004, 26688, 29287, 33641, 26319, 26387, 31477, 26274, 29344, 30246, 29546, 32937, 26578, 29244, 33755, 26577, 31945, 26647, 28367, 31721, 26653, 29137, 26772, 26646, 33857, 26672, 27074, 33364, 26635, 26543, 26630, 26677, 33966, 26619, 29410, 31781, 26589, 34722, 26539, 31970, 26200, 26597, 31433, 30640, 27252, 32715, 27355, 28163, 32617, 31556, 26947, 29280, 27103, 33668, 27638, 26559, 32718, 26156, 26390, 33444, 26298, 26476, 35044, 26443, 30542, 26540, 29815, 33056, 26833, 31114, 26379, 26481, 26521, 30863, 26465, 32688, 26546, 31056, 27674, 26421, 33617, 26484, 31045, 26299, 28208, 26665, 30421, 26544, 32518, 29959, 31953, 27198, 28752, 33295, 28344, 31854, 26871, 33116, 26267, 28122, 31057, 28112, 35253, 26644, 28250, 33094, 26193, 27257, 29220, 33687, 26516, 32379, 28794, 27604, 31838, 30367, 26985, 32376, 26261, 26324, 31861, 26535, 29798, 27860, 27914, 29262, 33839, 26331, 28467, 27682, 26303, 33397, 26081, 28548, 25983, 25973, 33791, 26025, 29300, 25926, 27581, 33257, 26464, 30626, 26466, 29037, 29402, 25971, 26949, 32675, 26033, 31588, 29642, 25730, 26864, 33072, 26086, 28748, 32617, 27618, 33708, 27724, 30072, 32558, 26235, 26183, 34741, 26446, 26829, 29566, 26334, 26708, 31518, 26338, 32910, 26675, 25912, 32625, 27319, 29280, 27454, 26220, 33604, 26320, 26360, 34117, 26195, 31135, 26126, 26421, 33001, 29054, 26358, 32810, 26411, 26268, 34756, 26188, 31932, 26789, 27519, 29240, 31015, 26262, 32155, 27399, 33602, 27005, 27763, 36938, 26793, 25879, 34694, 31799, 26274, 30862, 26265, 26002, 32033, 26088, 28144, 34454, 27555, 26251, 31947, 31338, 26874, 31864, 26333, 26303, 34184, 26335, 26792, 32958, 26230, 26304, 30436, 29669, 26387, 31533, 26635, 26223, 29327, 26425, 26523, 33878, 26339, 26724], "WindowCenter": [10233.0, 10186.0, 10177.0, 10206.0, 10192.0, 10198.0, 10178.0, 10204.0, 10182.0, 10194.0, 10177.0, 10172.0, 10174.0, 10191.0, 10151.0, 10183.0, 10155.0, 10150.0, 10153.0, 10159.0, 10139.0, 10168.0, 10145.0, 10150.0, 10156.0, 10175.0, 10136.0, 10142.0, 10160.0, 10155.0, 10158.0, 10165.0, 10149.0, 10154.0, 10169.0, 10147.0, 10147.0, 10158.0, 10152.0, 10155.0, 10177.0, 10179.0, 10153.0, 10144.0, 10174.0, 10151.0, 10170.0, 10204.0, 10194.0, 10150.0, 10212.0, 10188.0, 10181.0, 10198.0, 10199.0, 10215.0, 10199.0, 10189.0, 10225.0, 10203.0, 10239.0, 10220.0, 10220.0, 10244.0, 10201.0, 10205.0, 10193.0, 10168.0, 10174.0, 10205.0, 10173.0, 10125.0, 10150.0, 10167.0, 10144.0, 10140.0, 10168.0, 10153.0, 10165.0, 10146.0, 10166.0, 10179.0, 10156.0, 10157.0, 10181.0, 10148.0, 10171.0, 10151.0, 10177.0, 10165.0, 10134.0, 10153.0, 10149.0, 10158.0, 10177.0, 10141.0, 10132.0, 10171.0, 10172.0, 10156.0, 10174.0, 10185.0, 10206.0, 10186.0, 10194.0, 10217.0, 10161.0, 10214.0, 10162.0, 10218.0, 10196.0, 10205.0, 10231.0, 10236.0, 10181.0, 10222.0, 10214.0, 10204.0, 10226.0, 10287.0, 10190.0, 10192.0, 10175.0, 10194.0, 10148.0, 10138.0, 10134.0, 10132.0, 10129.0, 10174.0, 10134.0, 10130.0, 10159.0, 10137.0, 10171.0, 10162.0, 10159.0, 10169.0, 10153.0, 10155.0, 10139.0, 10120.0, 10133.0, 10162.0, 10140.0, 10171.0, 10152.0, 10167.0, 10138.0, 10146.0, 10170.0, 10153.0, 10186.0, 10163.0, 10192.0, 10179.0, 10205.0, 10190.0, 10225.0, 10206.0, 10213.0, 10182.0, 10208.0, 10220.0, 10235.0, 10259.0, 10210.0, 10252.0, 10214.0, 10213.0, 10210.0, 10184.0, 10204.0, 10150.0, 10164.0, 10195.0, 10158.0, 10159.0, 10169.0, 10170.0, 10147.0, 10172.0, 10162.0, 10156.0, 10167.0, 10153.0, 10134.0, 10143.0, 10134.0, 10129.0, 10130.0, 10121.0, 10158.0, 10152.0, 10153.0, 10153.0, 10159.0, 10128.0, 10145.0, 10142.0, 10139.0, 10170.0, 10131.0, 10146.0, 10135.0, 10147.0, 10191.0, 10175.0, 10187.0, 10191.0, 10202.0, 10198.0, 10198.0, 10192.0, 10182.0, 10201.0, 10198.0, 10197.0, 10204.0, 10239.0, 10178.0, 10233.0, 10199.0, 10186.0, 10180.0, 10197.0, 10162.0, 10169.0, 10238.0, 10193.0, 10186.0, 10142.0, 10147.0, 10154.0, 10119.0, 10123.0, 10137.0, 10110.0, 10105.0, 10138.0, 10126.0, 10135.0, 10151.0, 10121.0, 10162.0, 10138.0, 10131.0, 10174.0, 10136.0, 10144.0, 10130.0, 10137.0, 10161.0, 10134.0, 10134.0, 10173.0, 10168.0, 10175.0, 10154.0, 10175.0, 10189.0, 10181.0, 10165.0, 10194.0, 10173.0, 10178.0, 10215.0, 10163.0, 10181.0, 10191.0, 10202.0, 10212.0, 10223.0, 10189.0, 10246.0, 10242.0, 10237.0, 10194.0, 10193.0, 10192.0, 10150.0, 10133.0, 10159.0, 10142.0, 10101.0, 10135.0, 10124.0, 10138.0, 10166.0, 10148.0, 10134.0, 10158.0, 10123.0, 10118.0, 10159.0, 10141.0, 10138.0, 10142.0, 10132.0, 10142.0, 10180.0, 10145.0, 10132.0, 10158.0, 10143.0, 10149.0, 10143.0, 10150.0, 10124.0, 10157.0, 10140.0, 10149.0, 10154.0, 10160.0, 10172.0, 10195.0, 10168.0, 10166.0], "WindowWidth": [21735.0, 21637.0, 21611.0, 21664.0, 21636.0, 21651.0, 21614.0, 21660.0, 21612.0, 21636.0, 21602.0, 21591.0, 21593.0, 21621.0, 21541.0, 21602.0, 21550.0, 21541.0, 21545.0, 21558.0, 21521.0, 21574.0, 21532.0, 21542.0, 21550.0, 21587.0, 21510.0, 21522.0, 21560.0, 21556.0, 21558.0, 21572.0, 21537.0, 21547.0, 21577.0, 21538.0, 21535.0, 21553.0, 21547.0, 21558.0, 21601.0, 21598.0, 21547.0, 21530.0, 21588.0, 21547.0, 21589.0, 21657.0, 21639.0, 21560.0, 21674.0, 21630.0, 21621.0, 21658.0, 21655.0, 21684.0, 21653.0, 21637.0, 21711.0, 21674.0, 21741.0, 21704.0, 21707.0, 21748.0, 21656.0, 21661.0, 21637.0, 21587.0, 21592.0, 21649.0, 21585.0, 2