{"AcquisitionMatrixPE": 96, "AcquisitionNumber": 1, "AcquisitionTime": "07:46:31.307500", "BaseResolution": 96, "BodyPartExamined": "BRAIN", "ConsistencyInfo": "N4_VD11D_LATEST_20110129", "ConversionSoftware": "dcm2niix", "ConversionSoftwareVersion": "v1.0.20210317", "DeviceSerialNumber": "45239", "DwellTime": 9.2e-06, "EchoNumber": 2, "EchoTime": 0.00738, "EchoTime1": 0.00492, "EchoTime2": 0.00738, "FlipAngle": 50, "ImageOrientationPatientDICOM": [0.998371, 0.00530082, 0.0568067, 0.0263715, 0.840053, -0.541863], "ImageType": ["ORIGINAL", "PRIMARY", "P", "ND", "PHASE"], "ImagingFrequency": 123.193, "InPlanePhaseEncodingDirectionDICOM": "COL", "InstitutionAddress": "E 24th St. 100,Austin,Southmiddle,US,78712", "InstitutionName": "Univ of Texas at Austin", "InstitutionalDepartmentName": "IRC", "MRAcquisitionType": "2D", "MagneticFieldStrength": 3, "Manufacturer": "Siemens", "ManufacturersModelName": "Skyra", "Modality": "MR", "PartialFourier": 1, "PatientPosition": "HFS", "PercentPhaseFOV": 100, "PercentSampling": 100, "PhaseEncodingDirection": "j-", "PhaseEncodingSteps": 96, "PhaseResolution": 1, "PixelBandwidth": 565, "ProcedureStepDescription": "Poldrack2^self-scanning", "ProtocolName": "gre_field_mapping", "PulseSequenceDetails": "%SiemensSeq%\\gre_field_mapping", "ReceiveCoilActiveElements": "HEA;HEP", "ReceiveCoilName": "Head_32", "ReconMatrixPE": 96, "RepetitionTime": 0.731, "SAR": 0.12471, "ScanningSequence": "GR", "SequenceName": "*fm2d2r", "SequenceVariant": "SP", "SeriesDescription": "gre_field_mapping", "SeriesNumber": 11, "ShimSetting": [-2760, 8014, -15457, 201, -184, 79, 235, -105], "SliceThickness": 2, "SliceTiming": [0.35938, 0, 0.375, 0.00781, 0.38281, 0.02344, 0.39844, 0.03125, 0.40625, 0.03906, 0.41406, 0.05469, 0.42969, 0.0625, 0.4375, 0.07031, 0.45312, 0.08594, 0.46094, 0.09375, 0.46875, 0.10156, 0.48438, 0.11719, 0.49219, 0.125, 0.5, 0.14062, 0.51562, 0.14844, 0.52344, 0.15625, 0.53125, 0.17188, 0.54688, 0.17969, 0.55469, 0.1875, 0.57031, 0.20312, 0.57812, 0.21094, 0.58594, 0.21875, 0.60156, 0.23438, 0.60938, 0.24219, 0.61719, 0.25781, 0.63281, 0.26562, 0.64062, 0.27344, 0.64844, 0.28906, 0.66406, 0.29688, 0.67188, 0.3125, 0.6875, 0.32031, 0.69531, 0.32812, 0.71094, 0.34375, 0.71875, 0.35156], "SoftwareVersions": "syngo MR D11", "SpacingBetweenSlices": 2.4, "StationName": "AWP45239", "TxRefAmp": 348.9, "dcmmeta_affine": [[-2.3919308185577393, 0.06318161636590958, 0.12142324447631836, 108.85411071777344], [-0.01269987691193819, 2.0126264095306396, -1.3019485473632812, -63.90432357788086], [0.13609938323497772, 1.298214316368103, 2.0125045776367188, -102.93228149414062], [0.0, 0.0, 0.0, 1.0]], "dcmmeta_reorient_transform": [[0.0, -1.0, 0.0, 95.0], [1.0, 0.0, 0.0, 0.0], [0.0, 0.0, -1.0, 67.0], [0.0, 0.0, 0.0, 1.0]], "dcmmeta_shape": [96, 96, 68], "dcmmeta_slice_dim": 2, "dcmmeta_version": 0.6, "global": {"const": {"AcquisitionMatrix": [96, 0, 0, 96], "AcquisitionNumber": 1, "AngioFlag": "N", "BitsAllocated": 16, "BitsStored": 12, "BodyPartExamined": "BRAIN", "Columns": 96, "EchoNumbers": 2, "EchoTime": 7.38, "EchoTrainLength": 0, "FlipAngle": 50.0, "HighBit": 11, "ImageOrientationPatient": [0.99837112346592, 0.00530081852065, 0.05680669989017, 0.02637145887018, 0.84005275273476, -0.5418633764888], "ImageType": ["ORIGINAL", "PRIMARY", "P", "ND"], "ImagedNucleus": "1H", "ImagingFrequency": 123.193386, "InPlanePhaseEncodingDirection": "COL", "MRAcquisitionType": "2D", "MagneticFieldStrength": 3.0, "Manufacturer": "SIEMENS", "ManufacturerModelName": "Skyra", "Modality": "MR", "NumberOfAverages": 1.0, "NumberOfPhaseEncodingSteps": 96, "PercentPhaseFieldOfView": 100.0, "PercentSampling": 100.0, "PerformedProcedureStepStartTime": "072219.875000", "PhotometricInterpretation": "MONOCHROME2", "PixelBandwidth": 565.0, "PixelRepresentation": 0, "PixelSpacing": [2.3958332538605, 2.3958332538605], "ProtocolName": "gre_field_mapping", "RepetitionTime": 731.0, "RescaleIntercept": -4096.0, "RescaleSlope": 2.0, "RescaleType": "US", "Rows": 96, "SAR": 0.12470958489561, "SamplesPerPixel": 1, "ScanningSequence": "GR", "SequenceName": "*fm2d2r", "SequenceVariant": "SP", "SeriesDescription": "gre_field_mapping", "SeriesNumber": 11, "SeriesTime": "075235.687000", "SliceThickness": 2.0, "SoftwareVersions": "syngo MR D11", "SpacingBetweenSlices": 2.4, "SpecificCharacterSet": "ISO_IR 100", "StudyID": "1", "StudyTime": "072219.843000", "TransmitCoilName": "Body", "VariableFlipAngleFlag": "N", "WindowCenterWidthExplanation": "Algo1", "dBdt": 0.0}, "slices": {"AcquisitionTime": ["074631.307500", "074630.942500", "074631.320000", "074630.952500", "074631.330000", "074630.965000", "074631.340000", "074630.975000", "074631.350000", "074630.985000", "074631.362500", "074630.997500", "074631.372500", "074631.007500", "074631.382500", "074631.017500", "074631.395000", "074631.027500", "074631.405000", "074631.040000", "074631.415000", "074631.050000", "074631.427500", "074631.060000", "074631.437500", "074631.072500", "074631.447500", "074631.082500", "074631.457500", "074631.092500", "074631.470000", "074631.105000", "074631.480000", "074631.115000", "074631.490000", "074631.125000", "074631.502500", "074631.135000", "074631.512500", "074631.147500", "074631.522500", "074631.157500", "074631.535000", "074631.167500", "074631.545000", "074631.180000", "074631.555000", "074631.190000", "074631.565000", "074631.200000", "074631.577500", "074631.212500", "074631.587500", "074631.222500", "074631.597500", "074631.232500", "074631.610000", "074631.242500", "074631.620000", "074631.255000", "074631.630000", "074631.265000", "074631.642500", "074631.275000", "074631.652500", "074631.287500", "074631.662500", "074631.297500"], "ContentTime": ["075235.781000", "075235.687000", "075235.781000", "075235.687000", "075235.796000", "075235.703000", "075235.796000", "075235.703000", "075235.796000", "075235.703000", "075235.796000", "075235.703000", "075235.796000", "075235.703000", "075235.796000", "075235.703000", "075235.796000", "075235.703000", "075235.812000", "075235.718000", "075235.812000", "075235.718000", "075235.812000", "075235.718000", "075235.812000", "075235.718000", "075235.812000", "075235.718000", "075235.828000", "075235.718000", "075235.843000", "075235.718000", "075235.843000", "075235.734000", "075235.843000", "075235.734000", "075235.843000", "075235.734000", "075235.843000", "075235.734000", "075235.843000", "075235.750000", "075235.843000", "075235.750000", "075235.859000", "075235.750000", "075235.859000", "075235.750000", "075235.859000", "075235.750000", "075235.859000", "075235.750000", "075235.859000", "075235.765000", "075235.875000", "075235.765000", "075235.875000", "075235.765000", "075235.875000", "075235.781000", "075235.875000", "075235.781000", "075235.875000", "075235.781000", "075235.890000", "075235.781000", "075235.890000", "075235.781000"], "CsaImage.ICE_Dims": ["X_2_1_1_1_1_1_35_1_1_1_1_111", "X_2_1_1_1_1_1_1_1_1_2_1_111", "X_2_1_1_1_1_1_36_1_1_3_1_111", "X_2_1_1_1_1_1_2_1_1_4_1_111", "X_2_1_1_1_1_1_37_1_1_5_1_111", "X_2_1_1_1_1_1_3_1_1_6_1_111", "X_2_1_1_1_1_1_38_1_1_7_1_111", "X_2_1_1_1_1_1_4_1_1_8_1_111", "X_2_1_1_1_1_1_39_1_1_9_1_111", "X_2_1_1_1_1_1_5_1_1_10_1_111", "X_2_1_1_1_1_1_40_1_1_11_1_111", "X_2_1_1_1_1_1_6_1_1_12_1_111", "X_2_1_1_1_1_1_41_1_1_13_1_111", "X_2_1_1_1_1_1_7_1_1_14_1_111", "X_2_1_1_1_1_1_42_1_1_15_1_111", "X_2_1_1_1_1_1_8_1_1_16_1_111", "X_2_1_1_1_1_1_43_1_1_17_1_111", "X_2_1_1_1_1_1_9_1_1_18_1_111", "X_2_1_1_1_1_1_44_1_1_19_1_111", "X_2_1_1_1_1_1_10_1_1_20_1_111", "X_2_1_1_1_1_1_45_1_1_21_1_111", "X_2_1_1_1_1_1_11_1_1_22_1_111", "X_2_1_1_1_1_1_46_1_1_23_1_111", "X_2_1_1_1_1_1_12_1_1_24_1_111", "X_2_1_1_1_1_1_47_1_1_25_1_111", "X_2_1_1_1_1_1_13_1_1_26_1_111", "X_2_1_1_1_1_1_48_1_1_27_1_111", "X_2_1_1_1_1_1_14_1_1_28_1_111", "X_2_1_1_1_1_1_49_1_1_29_1_111", "X_2_1_1_1_1_1_15_1_1_30_1_111", "X_2_1_1_1_1_1_50_1_1_31_1_111", "X_2_1_1_1_1_1_16_1_1_32_1_111", "X_2_1_1_1_1_1_51_1_1_33_1_111", "X_2_1_1_1_1_1_17_1_1_34_1_111", "X_2_1_1_1_1_1_52_1_1_35_1_111", "X_2_1_1_1_1_1_18_1_1_36_1_111", "X_2_1_1_1_1_1_53_1_1_37_1_111", "X_2_1_1_1_1_1_19_1_1_38_1_111", "X_2_1_1_1_1_1_54_1_1_39_1_111", "X_2_1_1_1_1_1_20_1_1_40_1_111", "X_2_1_1_1_1_1_55_1_1_41_1_111", "X_2_1_1_1_1_1_21_1_1_42_1_111", "X_2_1_1_1_1_1_56_1_1_43_1_111", "X_2_1_1_1_1_1_22_1_1_44_1_111", "X_2_1_1_1_1_1_57_1_1_45_1_111", "X_2_1_1_1_1_1_23_1_1_46_1_111", "X_2_1_1_1_1_1_58_1_1_47_1_111", "X_2_1_1_1_1_1_24_1_1_48_1_111", "X_2_1_1_1_1_1_59_1_1_49_1_111", "X_2_1_1_1_1_1_25_1_1_50_1_111", "X_2_1_1_1_1_1_60_1_1_51_1_111", "X_2_1_1_1_1_1_26_1_1_52_1_111", "X_2_1_1_1_1_1_61_1_1_53_1_111", "X_2_1_1_1_1_1_27_1_1_54_1_111", "X_2_1_1_1_1_1_62_1_1_55_1_111", "X_2_1_1_1_1_1_28_1_1_56_1_111", "X_2_1_1_1_1_1_63_1_1_57_1_111", "X_2_1_1_1_1_1_29_1_1_58_1_111", "X_2_1_1_1_1_1_64_1_1_59_1_111", "X_2_1_1_1_1_1_30_1_1_60_1_111", "X_2_1_1_1_1_1_65_1_1_61_1_111", "X_2_1_1_1_1_1_31_1_1_62_1_111", "X_2_1_1_1_1_1_66_1_1_63_1_111", "X_2_1_1_1_1_1_32_1_1_64_1_111", "X_2_1_1_1_1_1_67_1_1_65_1_111", "X_2_1_1_1_1_1_33_1_1_66_1_111", "X_2_1_1_1_1_1_68_1_1_67_1_111", "X_2_1_1_1_1_1_34_1_1_68_1_111"], "CsaImage.ProtocolSliceNumber": [0, 1, 2, 3, 4, 5, 6, 7, 8, 9, 10, 11, 12, 13, 14, 15, 16, 17, 18, 19, 20, 21, 22, 23, 24, 25, 26, 27, 28, 29, 30, 31, 32, 33, 34, 35, 36, 37, 38, 39, 40, 41, 42, 43, 44, 45, 46, 47, 48, 49, 50, 51, 52, 53, 54, 55, 56, 57, 58, 59, 60, 61, 62, 63, 64, 65, 66, 67], "CsaImage.SlicePosition_PCS": [[-114.85637843, -127.29522252, 20.39791382], [-114.97780144, -125.99327206, 22.41041839], [-115.09922468, -124.69132352, 24.42292679], [-115.22064769, -123.38937497, 26.43543327], [-115.3420707, -122.08742451, 28.44793976], [-115.4634937, -120.78547597, 30.46044815], [-115.58491671, -119.48352551, 32.47295463], [-115.70633995, -118.18157696, 34.48546112], [-115.82776296, -116.87962842, 36.49796951], [-115.94918597, -115.57767796, 38.510476], [-116.07060909, -114.27572941, 40.52298248], [-116.1920321, -112.97377991, 42.53548992], [-116.3134551, -111.67183137, 44.54799736], [-116.43487823, -110.36988187, 46.56050384], [-116.55630123, -109.06793236, 48.57301128], [-116.67772436, -107.76598382, 50.58551824], [-116.79914737, -106.46403432, 52.59802521], [-116.92057043, -105.16208529, 54.61053229], [-117.0419935, -103.86013579, 56.62303937], [-117.16341656, -102.55818677, 58.63554657], [-117.28483963, -101.25623727, 60.64805353], [-117.40626266, -99.95428824, 62.66056049], [-117.52768573, -98.6523391, 64.67306793], [-117.64910877, -97.35038987, 66.68557441], [-117.77053183, -96.04844069, 68.69808185], [-117.89195489, -94.74649143, 70.71058929], [-118.01337795, -93.44454217, 72.72309578], [-118.134801, -92.14259314, 74.73560226], [-118.25622406, -90.84064364, 76.74811065], [-118.3776471, -89.53869462, 78.76061714], [-118.49907017, -88.23674512, 80.77312362], [-118.62049323, -86.93479657, 82.78563202], [-118.7419163, -85.63284707, 84.7981385], [-118.8633393, -84.33089757, 86.81064499], [-118.98476243, -83.02894902, 88.82315338], [-119.10618543, -81.72699952, 90.83565796], [-119.22760856, -80.42505002, 92.84816635], [-119.34903157, -79.12310147, 94.86067474], [-119.47045457, -77.82115102, 96.87317932], [-119.5918777, -76.51920247, 98.88568771], [-119.7133007, -75.21725392, 100.8981961], [-119.83472383, -73.91530347, 102.91070068], [-119.95614683, -72.61335492, 104.92320907], [-120.07756984, -71.31140637, 106.93571747], [-120.19899285, -70.00945592, 108.94822204], [-120.32041609, -68.70750737, 110.96073044], [-120.4418391, -67.40555882, 112.97323883], [-120.5632621, -66.10360837, 114.98574341], [-120.68468511, -64.80165982, 116.9982518], [-120.80610812, -63.49971127, 119.01076019], [-120.92753136, -62.19776272, 121.02326858], [-121.04895437, -60.89581036, 123.03577316], [-121.17037737, -59.59386182, 125.04827774], [-121.29180038, -58.29191327, 127.06078995], [-121.41322362, -56.98996472, 129.07329452], [-121.53464663, -55.68801617, 131.0857991], [-121.65606963, -54.38606763, 133.09831131], [-121.77749264, -53.08411526, 135.11081589], [-121.89891565, -51.78216672, 137.12332046], [-122.02033889, -50.48021817, 139.13583267], [-122.14176166, -49.17826962, 141.14833725], [-122.2631849, -47.87632107, 143.16084183], [-122.38460815, -46.57437253, 145.17335403], [-122.50603092, -45.27242016, 147.18585861], [-122.62745416, -43.97047162, 149.19836319], [-122.74887693, -42.66852307, 151.21086777], [-122.87030017, -41.36657452, 153.22337997], [-122.99172342, -40.06462598, 155.23588455]], "CsaImage.TimeAfterStart": [1.1, 0.7325, 1.11, 0.745, 1.12, 0.755, 1.1325, 0.765, 1.1425, 0.7775, 1.1525, 0.7875, 1.1625, 0.7975, 1.175, 0.81, 1.185, 0.82, 1.195, 0.83, 1.2075, 0.84, 1.2175, 0.8525, 1.2275, 0.8625, 1.24, 0.8725, 1.25, 0.885, 1.26, 0.895, 1.27, 0.905, 1.2825, 0.9175, 1.2925, 0.9275, 1.3025, 0.9375, 1.315, 0.9475, 1.325, 0.96, 1.335, 0.97, 1.3475, 0.98, 1.3575, 0.9925, 1.3675, 1.0025, 1.3775, 1.0125, 1.39, 1.025, 1.4, 1.035, 1.41, 1.045, 1.4225, 1.055, 1.4325, 1.0675, 1.4425, 1.0775, 1.455, 1.0875], "ImagePositionPatient": [[-114.85637843402, -127.29522251782, 20.39791381616], [-114.97780144008, -125.99327206311, 22.410418393797], [-115.09922468455, -124.69132351575, 24.422926786131], [-115.22064769061, -123.38937496838, 26.435433271116], [-115.34207069667, -122.08742451367, 28.447939756102], [-115.46349370273, -120.78547596631, 30.460448148436], [-115.58491670878, -119.4835255116, 32.472954633421], [-115.70633995326, -118.18157696423, 34.485461118406], [-115.82776295932, -116.87962841687, 36.49796951074], [-115.94918596538, -115.57767796216, 38.510475995726], [-116.07060909064, -114.27572941479, 40.522982480711], [-116.1920320967, -112.97377991376, 42.535489919371], [-116.31345510276, -111.67183136639, 44.54799735803], [-116.43487822803, -110.36988186536, 46.560503843016], [-116.55630123408, -109.06793236432, 48.573011281675], [-116.67772435935, -107.76598381696, 50.585518243498], [-116.79914736541, -106.46403431592, 52.59802520532], [-116.92057043107, -105.16208529172, 54.610532286352], [-117.04199349673, -103.86013579068, 56.623039367384], [-117.1634165624, -102.55818676648, 58.635546567625], [-117.28483962806, -101.25623726544, 60.648053529448], [-117.40626266392, -99.954288241241, 62.66056049127], [-117.52768572958, -98.652339097831, 64.67306792993], [-117.64910876544, -97.350389865015, 66.685574414915], [-117.7705318311, -96.048440691803, 68.698081853575], [-117.89195488559, -94.746491429184, 70.710589292234], [-118.01337794753, -93.444542166565, 72.72309577722], [-118.13480099829, -92.142593142364, 74.735602262205], [-118.25622406395, -90.840643641327, 76.748110654539], [-118.37764709981, -89.538694617126, 78.760617139524], [-118.49907016547, -88.236745116089, 80.77312362451], [-118.62049323113, -86.934796568725, 82.785632016844], [-118.7419162968, -85.632847067688, 84.798138501829], [-118.86333930285, -84.33089756665, 86.810644986814], [-118.98476242812, -83.028949019287, 88.823153379148], [-119.10618543418, -81.726999518249, 90.835657956785], [-119.22760855945, -80.425050017212, 92.848166349119], [-119.3490315655, -79.123101469848, 94.860674741453], [-119.47045457156, -77.821151015136, 96.87317931909], [-119.59187769683, -76.519202467773, 98.885687711424], [-119.71330070289, -75.21725392041, 100.89819610376], [-119.83472382815, -73.915303465698, 102.91070068139], [-119.95614683421, -72.613354918335, 104.92320907373], [-120.07756984027, -71.311406370971, 106.93571746606], [-120.19899284633, -70.009455916259, 108.9482220437], [-120.3204160908, -68.707507368896, 110.96073043603], [-120.44183909686, -67.405558821533, 112.97323882837], [-120.56326210292, -66.103608366821, 114.985743406], [-120.68468510898, -64.801659819458, 116.99825179834], [-120.80610811503, -63.499711272094, 119.01076019067], [-120.92753135951, -62.197762724731, 121.02326858301], [-121.04895436557, -60.895810362671, 123.03577316064], [-121.17037737163, -59.593861815307, 125.04827773828], [-121.29180037768, -58.291913267944, 127.06078994531], [-121.41322362216, -56.989964720581, 129.07329452295], [-121.53464662822, -55.688016173217, 131.08579910058], [-121.65606963428, -54.386067625854, 133.09831130762], [-121.77749264033, -53.084115263794, 135.11081588525], [-121.89891564639, -51.78216671643, 137.12332046289], [-122.02033889087, -50.480218169067, 139.13583266992], [-122.14176165851, -49.178269621704, 141.14833724756], [-122.26318490298, -47.87632107434, 143.16084182519], [-122.38460814746, -46.574372526977, 145.17335403222], [-122.5060309151, -45.272420164917, 147.18585860986], [-122.62745415957, -43.970471617553, 149.1983631875], [-122.74887692721, -42.66852307019, 151.21086776513], [-122.87030017169, -41.366574522827, 153.22337997217], [-122.99172341617, -40.064625975464, 155.2358845498]], "InstanceCreationTime": ["075235.781000", "075235.687000", "075235.781000", "075235.687000", "075235.796000", "075235.703000", "075235.796000", "075235.703000", "075235.796000", "075235.703000", "075235.796000", "075235.703000", "075235.796000", "075235.703000", "075235.796000", "075235.703000", "075235.796000", "075235.703000", "075235.812000", "075235.718000", "075235.812000", "075235.718000", "075235.812000", "075235.718000", "075235.812000", "075235.718000", "075235.812000", "075235.718000", "075235.828000", "075235.718000", "075235.843000", "075235.718000", "075235.843000", "075235.734000", "075235.843000", "075235.734000", "075235.843000", "075235.734000", "075235.843000", "075235.734000", "075235.843000", "075235.750000", "075235.843000", "075235.750000", "075235.859000", "075235.750000", "075235.859000", "075235.750000", "075235.859000", "075235.750000", "075235.859000", "075235.750000", "075235.859000", "075235.765000", "075235.875000", "075235.765000", "075235.875000", "075235.765000", "075235.875000", "075235.781000", "075235.875000", "075235.781000", "075235.875000", "075235.781000", "075235.890000", "075235.781000", "075235.890000", "075235.781000"], "InstanceNumber": [1, 2, 3, 4, 5, 6, 7, 8, 9, 10, 11, 12, 13, 14, 15, 16, 17, 18, 19, 20, 21, 22, 23, 24, 25, 26, 27, 28, 29, 30, 31, 32, 33, 34, 35, 36, 37, 38, 39, 40, 41, 42, 43, 44, 45, 46, 47, 48, 49, 50, 51, 52, 53, 54, 55, 56, 57, 58, 59, 60, 61, 62, 63, 64, 65, 66, 67, 68], "LargestImagePixelValue": [4092, 4094, 4094, 4092, 4094, 4093, 4094, 4094, 4094, 4094, 4094, 4093, 4094, 4094, 4093, 4092, 4092, 4094, 4093, 4091, 4094, 4094, 4093, 4094, 4088, 4092, 4092, 4093, 4092, 4088, 4091, 4093, 4094, 4092, 4093, 4094, 4094, 4094, 4094, 4092, 4084, 4093, 4093, 4090, 4094, 4091, 4090, 4093, 4094, 4093, 4092, 4092, 4094, 4094, 4093, 4094, 4094, 4094, 4094, 4093, 4093, 4094, 4091, 4094, 4094, 4094, 4094, 4094], "SliceLocation": [-46.139479328205, -43.739480743221, -41.339479982076, -38.939480832391, -36.53948064801, -34.139479898928, -31.739479714546, -29.339480552799, -26.939479803717, -24.539479619335, -22.139480463619, -19.739479996887, -17.339480047503, -14.939480374439, -12.539479907707, -10.139480352142, -7.7394802852592, -5.3394803740729, -2.9394802042125, -0.5394801930638, 1.8605198768343, 4.2605196865505, 6.6605199622923, 9.0605194853292, 11.460519777238, 13.860520117083, 16.260519657606, 18.660519068227, 21.060520337673, 23.46051974754, 25.860519417589, 28.260520169687, 30.660519839735, 33.060519506769, 35.460520261882, 37.860518329518, 40.26051960198, 42.660520351062, 45.060518936046, 47.46051969116, 49.860520440242, 52.260519031257, 54.660519780339, 57.060520529421, 59.460519114406, 61.86051987555, 64.260520624632, 66.660519209617, 69.060519958699, 71.460520707781, 73.860521468925, 76.260521088606, 78.660518638894, 81.06052258677, 83.460520149121, 85.860517699409, 88.260521647285, 90.660521266966, 93.060518817254, 95.460522777192, 97.860520315418, 100.26051787777, 102.66052183771, 105.06052144533, 107.46051900768, 109.8605165459, 112.26052050584, 114.66051806819], "SmallestImagePixelValue": [0, 1, 2, 1, 0, 2, 0, 2, 0, 0, 0, 3, 0, 4, 3, 0, 0, 0, 4, 2, 0, 0, 1, 0, 5, 5, 2, 2, 0, 0, 2, 0, 2, 0, 0, 0, 3, 2, 0, 0, 1, 2, 1, 1, 1, 2, 1, 1, 0, 0, 2, 0, 0, 0, 0, 0, 1, 1, 1, 0, 0, 0, 0, 1, 0, 1, 0, 0], "WindowCenter": [-246.0, -238.0, -238.0, -254.0, -294.0, -568.0, -610.0, -594.0, -550.0, -608.0, -560.0, -522.0, -536.0, -534.0, -512.0, -554.0, -494.0, -484.0, -502.0, -486.0, -428.0, -410.0, -402.0, -378.0, -348.0, -312.0, -316.0, -282.0, -268.0, -232.0, -232.0, -216.0, -250.0, -246.0, -240.0, -268.0, -268.0, -252.0, -234.0, -176.0, -134.0, -154.0, -168.0, -192.0, -188.0, -216.0, -242.0, -242.0, -242.0, -234.0, -214.0, -240.0, -238.0, -276.0, -264.0, -288.0, -262.0, -284.0, -280.0, -300.0, -322.0, -376.0, -384.0, -448.0, -464.0, -460.0, -492.0, -488.0], "WindowWidth": [5900.0, 6152.0, 6274.0, 6178.0, 6060.0, 5026.0, 5014.0, 4998.0, 4994.0, 4932.0, 4892.0, 4856.0, 4846.0, 4830.0, 4794.0, 4770.0, 4720.0, 4650.0, 4586.0, 4548.0, 4454.0, 4404.0, 4378.0, 4378.0, 4312.0, 4258.0, 4216.0, 4154.0, 4134.0, 4072.0, 4056.0, 4060.0, 4078.0, 4072.0, 4054.0, 4042.0, 4052.0, 4062.0, 4134.0, 4182.0, 4158.0, 4198.0, 4212.0, 4232.0, 4224.0, 4248.0, 4238.0, 4248.0, 4254.0, 4254.0, 4278.0, 4318.0, 4284.0, 4312.0, 4304.0, 4342.0, 4360.0, 4408.0, 4418.0, 4456.0, 4548.0, 4632.0, 4702.0, 4768.0, 4802.0, 4842.0, 4908.0, 4966.0]}}}