{"AcquisitionMatrixPE": 96, "AcquisitionNumber": 1, "AcquisitionTime": "07:44:38.130000", "BandwidthPerPixelPhaseEncode": 33.602, "BaseResolution": 96, "BodyPartExamined": "BRAIN", "ConsistencyInfo": "N4_VD11D_LATEST_20110129", "ConversionSoftware": "dcm2niix", "ConversionSoftwareVersion": "v1.0.20210317", "DerivedVendorReportedEchoSpacing": 0.000620003, "DeviceSerialNumber": "45239", "DwellTime": 2.6e-06, "EchoTime": 0.03, "EchoTrainLength": 48, "EffectiveEchoSpacing": 0.000310001, "FlipAngle": 63, "ImageComments": "Unaliased MB4/PE3", "ImageOrientationPatientDICOM": [0.999982, -0.00521004, 0.0028406, 0.0059341, 0.877968, -0.478683], "ImageType": ["ORIGINAL", "PRIMARY", "M", "ND", "NORM", "MOSAIC"], "ImagingFrequency": 123.193, "InPlanePhaseEncodingDirectionDICOM": "COL", "InstitutionAddress": "E 24th St. 100,Austin,Southmiddle,US,78712", "InstitutionName": "Univ of Texas at Austin", "InstitutionalDepartmentName": "IRC", "MRAcquisitionType": "2D", "MagneticFieldStrength": 3, "Manufacturer": "Siemens", "ManufacturersModelName": "Skyra", "Modality": "MR", "MultibandAccelerationFactor": 4, "ParallelReductionFactorInPlane": 2, "PartialFourier": 1, "PatientPosition": "HFS", "PercentPhaseFOV": 100, "PercentSampling": 100, "PhaseEncodingDirection": "j-", "PhaseEncodingSteps": 96, "PhaseResolution": 1, "PixelBandwidth": 2005, "ProcedureStepDescription": "Poldrack2^self-scanning", "ProtocolName": "N-back fMRI MBEPI_matrix96_BW200", "PulseSequenceDetails": "%CustomerSeq%\\cmrr_mbep2d_bold", "ReceiveCoilActiveElements": "HEA;HEP", "ReceiveCoilName": "Head_32", "ReconMatrixPE": 96, "RefLinesPE": 94, "RepetitionTime": 1.16, "SAR": 0.0900027, "ScanOptions": "FS", "ScanningSequence": "EP", "SequenceName": "epfid2d1_96", "SequenceVariant": "SK", "SeriesDescription": "N-back fMRI MBEPI_matrix96_BW200", "SeriesNumber": 11, "ShimSetting": [-2787, 8010, -15463, 226, -236, 42, 281, -114], "SliceThickness": 2, "SliceTiming": [0, 0.4975, 0.9975, 0.355, 0.855, 0.2125, 0.7125, 0.07, 0.57, 1.0675, 0.4275, 0.925, 0.285, 0.7825, 0.1425, 0.64, 0, 0.4975, 0.9975, 0.355, 0.855, 0.2125, 0.7125, 0.07, 0.57, 1.0675, 0.4275, 0.925, 0.285, 0.7825, 0.1425, 0.64, 0, 0.4975, 0.9975, 0.355, 0.855, 0.2125, 0.7125, 0.07, 0.57, 1.0675, 0.4275, 0.925, 0.285, 0.7825, 0.1425, 0.64, 0, 0.4975, 0.9975, 0.355, 0.855, 0.2125, 0.7125, 0.07, 0.57, 1.0675, 0.4275, 0.925, 0.285, 0.7825, 0.1425, 0.64], "SoftwareVersions": "syngo MR D11", "SpacingBetweenSlices": 2.4, "StationName": "AWP45239", "TaskName": "N-back task", "TotalReadoutTime": 0.0294501, "TxRefAmp": 331.931, "WipMemBlock": "b03128b4-f266-4280-8035-a9d3395f73d3||Sequence: VD11D r195; Nov 21 2012 15:36:10 by eja", "dcmmeta_affine": [[-2.3957910537719727, 0.014217115938663483, -8.897537817631473e-09, 116.04639434814453], [0.01248238980770111, 2.103463649749756, -1.1488604545593262, -70.86199951171875], [0.0068056099116802216, 1.1468456983566284, 2.10715913772583, -93.35433197021484], [0.0, 0.0, 0.0, 1.0]], "dcmmeta_reorient_transform": [[0.0, -1.0, 0.0, 95.0], [1.0, 0.0, 0.0, 0.0], [0.0, 0.0, 1.0, 0.0], [0.0, 0.0, 0.0, 1.0]], "dcmmeta_shape": [96, 96, 64, 380], "dcmmeta_slice_dim": 2, "dcmmeta_version": 0.6, "global": {"const": {"AcquisitionMatrix": [96, 0, 0, 96], "AngioFlag": "N", "BitsAllocated": 16, "BitsStored": 16, "BodyPartExamined": "BRAIN", "Columns": 768, "EchoNumbers": 1, "EchoTime": 30.0, "EchoTrainLength": 48, "FlipAngle": 63.0, "HighBit": 15, "ImageOrientationPatient": [0.99998239306976, -0.005210041106, 0.00284060242627, 0.00593410064547, 0.87796751517974, -0.4786834326971], "ImagePositionPatient": [-927.15977350187, -831.53680411848, 398.64947761492], "ImageType": ["ORIGINAL", "PRIMARY", "M", "ND", "NORM", "MOSAIC"], "ImagedNucleus": "1H", "ImagingFrequency": 123.193445, "InPlanePhaseEncodingDirection": "COL", "MRAcquisitionType": "2D", "MagneticFieldStrength": 3.0, "Manufacturer": "SIEMENS", "ManufacturerModelName": "Skyra", "Modality": "MR", "NumberOfAverages": 1.0, "NumberOfPhaseEncodingSteps": 96, "PercentPhaseFieldOfView": 100.0, "PercentSampling": 100.0, "PerformedProcedureStepStartTime": "070606.500000", "PhotometricInterpretation": "MONOCHROME2", "PixelBandwidth": 2005.0, "PixelRepresentation": 0, "PixelSpacing": [2.3958332538605, 2.3958332538605], "ProtocolName": "N-back fMRI MBEPI_matrix96_BW200", "RepetitionTime": 1160.0, "Rows": 768, "SAR": 0.09000265824892, "SamplesPerPixel": 1, "ScanOptions": "FS", "ScanningSequence": "EP", "SequenceName": "epfid2d1_96", "SequenceVariant": "SK", "SeriesDescription": "N-back fMRI MBEPI_matrix96_BW200", "SeriesNumber": 11, "SeriesTime": "074521.140000", "SliceLocation": -48.042449817131, "SliceThickness": 2.0, "SmallestImagePixelValue": 0, "SoftwareVersions": "syngo MR D11", "SpacingBetweenSlices": 2.400000012463, "SpecificCharacterSet": "ISO_IR 100", "StudyID": "1", "StudyTime": "070606.453000", "TransmitCoilName": "Body", "VariableFlipAngleFlag": "N", "WindowCenterWidthExplanation": "Algo1", "dBdt": 0.0}, "slices": {}}, "time": {"samples": {"AcquisitionNumber": [1, 2, 3, 4, 5, 6, 7, 8, 9, 10, 11, 12, 13, 14, 15, 16, 17, 18, 19, 20, 21, 22, 23, 24, 25, 26, 27, 28, 29, 30, 31, 32, 33, 34, 35, 36, 37, 38, 39, 40, 41, 42, 43, 44, 45, 46, 47, 48, 49, 50, 51, 52, 53, 54, 55, 56, 57, 58, 59, 60, 61, 62, 63, 64, 65, 66, 67, 68, 69, 70, 71, 72, 73, 74, 75, 76, 77, 78, 79, 80, 81, 82, 83, 84, 85, 86, 87, 88, 89, 90, 91, 92, 93, 94, 95, 96, 97, 98, 99, 100, 101, 102, 103, 104, 105, 106, 107, 108, 109, 110, 111, 112, 113, 114, 115, 116, 117, 118, 119, 120, 121, 122, 123, 124, 125, 126, 127, 128, 129, 130, 131, 132, 133, 134, 135, 136, 137, 138, 139, 140, 141, 142, 143, 144, 145, 146, 147, 148, 149, 150, 151, 152, 153, 154, 155, 156, 157, 158, 159, 160, 161, 162, 163, 164, 165, 166, 167, 168, 169, 170, 171, 172, 173, 174, 175, 176, 177, 178, 179, 180, 181, 182, 183, 184, 185, 186, 187, 188, 189, 190, 191, 192, 193, 194, 195, 196, 197, 198, 199, 200, 201, 202, 203, 204, 205, 206, 207, 208, 209, 210, 211, 212, 213, 214, 215, 216, 217, 218, 219, 220, 221, 222, 223, 224, 225, 226, 227, 228, 229, 230, 231, 232, 233, 234, 235, 236, 237, 238, 239, 240, 241, 242, 243, 244, 245, 246, 247, 248, 249, 250, 251, 252, 253, 254, 255, 256, 257, 258, 259, 260, 261, 262, 263, 264, 265, 266, 267, 268, 269, 270, 271, 272, 273, 274, 275, 276, 277, 278, 279, 280, 281, 282, 283, 284, 285, 286, 287, 288, 289, 290, 291, 292, 293, 294, 295, 296, 297, 298, 299, 300, 301, 302, 303, 304, 305, 306, 307, 308, 309, 310, 311, 312, 313, 314, 315, 316, 317, 318, 319, 320, 321, 322, 323, 324, 325, 326, 327, 328, 329, 330, 331, 332, 333, 334, 335, 336, 337, 338, 339, 340, 341, 342, 343, 344, 345, 346, 347, 348, 349, 350, 351, 352, 353, 354, 355, 356, 357, 358, 359, 360, 361, 362, 363, 364, 365, 366, 367, 368, 369, 370, 371, 372, 373, 374, 375, 376, 377, 378, 379, 380], "AcquisitionTime": ["074438.130000", "074507.130000", "074508.290000", "074509.450000", "074510.610000", "074511.770000", "074512.930000", "074514.090000", "074515.250000", "074516.410000", "074517.570000", "074518.730000", "074519.890000", "074521.050000", "074522.210000", "074523.370000", "074524.530000", "074525.690000", "074526.850000", "074528.010000", "074529.170000", "074530.330000", "074531.490000", "074532.650000", "074533.810000", "074534.970000", "074536.130000", "074537.290000", "074538.450000", "074539.610000", "074540.770000", "074541.930000", "074543.090000", "074544.250000", "074545.410000", "074546.570000", "074547.730000", "074548.890000", "074550.050000", "074551.210000", "074552.370000", "074553.530000", "074554.690000", "074555.850000", "074557.010000", "074558.170000", "074559.330000", "074600.490000", "074601.650000", "074602.810000", "074603.970000", "074605.130000", "074606.290000", "074607.450000", "074608.610000", "074609.770000", "074610.930000", "074612.090000", "074613.250000", "074614.410000", "074615.570000", "074616.730000", "074617.890000", "074619.050000", "074620.210000", "074621.370000", "074622.530000", "074623.690000", "074624.850000", "074626.010000", "074627.170000", "074628.330000", "074629.490000", "074630.650000", "074631.810000", "074632.970000", "074634.130000", "074635.290000", "074636.450000", "074637.610000", "074638.770000", "074639.930000", "074641.090000", "074642.250000", "074643.410000", "074644.570000", "074645.730000", "074646.890000", "074648.050000", "074649.210000", "074650.370000", "074651.530000", "074652.690000", "074653.850000", "074655.010000", "074656.170000", "074657.330000", "074658.490000", "074659.650000", "074700.810000", "074701.970000", "074703.130000", "074704.290000", "074705.450000", "074706.610000", "074707.770000", "074708.930000", "074710.090000", "074711.250000", "074712.410000", "074713.570000", "074714.730000", "074715.890000", "074717.050000", "074718.210000", "074719.370000", "074720.530000", "074721.690000", "074722.850000", "074724.010000", "074725.170000", "074726.330000", "074727.490000", "074728.650000", "074729.810000", "074730.970000", "074732.130000", "074733.290000", "074734.450000", "074735.610000", "074736.770000", "074737.930000", "074739.090000", "074740.250000", "074741.410000", "074742.570000", "074743.730000", "074744.890000", "074746.050000", "074747.212500", "074748.372500", "074749.532500", "074750.692500", "074751.852500", "074753.012500", "074754.172500", "074755.332500", "074756.492500", "074757.652500", "074758.812500", "074759.972500", "074801.132500", "074802.292500", "074803.452500", "074804.612500", "074805.772500", "074806.932500", "074808.092500", "074809.252500", "074810.412500", "074811.572500", "074812.732500", "074813.892500", "074815.052500", "074816.212500", "074817.372500", "074818.532500", "074819.692500", "074820.852500", "074822.012500", "074823.172500", "074824.332500", "074825.492500", "074826.652500", "074827.812500", "074828.972500", "074830.132500", "074831.292500", "074832.452500", "074833.612500", "074834.772500", "074835.932500", "074837.092500", "074838.252500", "074839.412500", "074840.572500", "074841.732500", "074842.892500", "074844.052500", "074845.212500", "074846.372500", "074847.532500", "074848.692500", "074849.852500", "074851.012500", "074852.172500", "074853.332500", "074854.492500", "074855.652500", "074856.812500", "074857.972500", "074859.132500", "074900.292500", "074901.452500", "074902.612500", "074903.772500", "074904.932500", "074906.092500", "074907.252500", "074908.412500", "074909.572500", "074910.732500", "074911.892500", "074913.052500", "074914.212500", "074915.372500", "074916.532500", "074917.692500", "074918.852500", "074920.012500", "074921.172500", "074922.332500", "074923.492500", "074924.652500", "074925.812500", "074926.972500", "074928.132500", "074929.292500", "074930.452500", "074931.612500", "074932.772500", "074933.932500", "074935.092500", "074936.252500", "074937.412500", "074938.572500", "074939.732500", "074940.892500", "074942.052500", "074943.212500", "074944.372500", "074945.532500", "074946.692500", "074947.852500", "074949.012500", "074950.172500", "074951.332500", "074952.492500", "074953.652500", "074954.812500", "074955.972500", "074957.132500", "074958.292500", "074959.452500", "075000.612500", "075001.772500", "075002.932500", "075004.092500", "075005.252500", "075006.412500", "075007.572500", "075008.732500", "075009.892500", "075011.052500", "075012.212500", "075013.372500", "075014.532500", "075015.692500", "075016.852500", "075018.012500", "075019.172500", "075020.332500", "075021.492500", "075022.652500", "075023.812500", "075024.972500", "075026.132500", "075027.292500", "075028.452500", "075029.612500", "075030.772500", "075031.932500", "075033.092500", "075034.252500", "075035.412500", "075036.572500", "075037.732500", "075038.892500", "075040.052500", "075041.212500", "075042.372500", "075043.532500", "075044.692500", "075045.852500", "075047.012500", "075048.172500", "075049.332500", "075050.492500", "075051.652500", "075052.812500", "075053.972500", "075055.132500", "075056.292500", "075057.452500", "075058.612500", "075059.772500", "075100.932500", "075102.092500", "075103.252500", "075104.412500", "075105.572500", "075106.732500", "075107.892500", "075109.052500", "075110.212500", "075111.372500", "075112.532500", "075113.692500", "075114.852500", "075116.012500", "075117.172500", "075118.332500", "075119.492500", "075120.652500", "075121.812500", "075122.972500", "075124.132500", "075125.292500", "075126.452500", "075127.612500", "075128.772500", "075129.932500", "075131.092500", "075132.252500", "075133.412500", "075134.572500", "075135.732500", "075136.892500", "075138.052500", "075139.212500", "075140.372500", "075141.532500", "075142.692500", "075143.852500", "075145.012500", "075146.172500", "075147.332500", "075148.492500", "075149.652500", "075150.812500", "075151.972500", "075153.132500", "075154.292500", "075155.452500", "075156.612500", "075157.772500", "075158.932500", "075200.092500", "075201.252500", "075202.412500", "075203.572500", "075204.732500", "075205.892500", "075207.052500", "075208.212500", "075209.372500", "075210.532500", "075211.692500", "075212.852500", "075214.012500", "075215.172500", "075216.332500", "075217.492500", "075218.652500", "075219.812500", "075220.972500", "075222.132500", "075223.292500", "075224.452500", "075225.612500"], "ContentTime": ["074521.140000", "074525.734000", "074525.734000", "074525.734000", "074530.734000", "074530.734000", "074530.734000", "074530.750000", "074530.750000", "074535.734000", "074535.734000", "074535.750000", "074535.750000", "074540.734000", "074540.734000", "074540.734000", "074540.750000", "074545.734000", "074545.734000", "074545.750000", "074550.734000", "074550.734000", "074550.734000", "074550.765000", "074550.765000", "074555.734000", "074555.734000", "074555.734000", "074555.750000", "074600.734000", "074600.734000", "074600.734000", "074600.750000", "074605.734000", "074605.734000", "074605.750000", "074610.734000", "074610.734000", "074610.734000", "074610.750000", "074615.734000", "074615.734000", "074615.750000", "074615.750000", "074620.734000", "074620.734000", "074620.734000", "074620.750000", "074620.750000", "074625.734000", "074625.734000", "074625.734000", "074625.750000", "074630.734000", "074630.734000", "074630.750000", "074635.734000", "074635.734000", "074635.734000", "074635.750000", "074635.750000", "074640.734000", "074640.734000", "074640.734000", "074645.734000", "074645.734000", "074645.734000", "074645.750000", "074650.734000", "074650.734000", "074650.734000", "074650.750000", "074655.734000", "074655.750000", "074655.750000", "074655.750000", "074700.734000", "074700.734000", "074700.734000", "074700.750000", "074705.734000", "074705.734000", "074705.734000", "074705.750000", "074710.734000", "074710.734000", "074710.734000", "074710.750000", "074715.734000", "074715.750000", "074715.750000", "074715.750000", "074720.734000", "074720.734000", "074720.734000", "074720.750000", "074725.734000", "074725.734000", "074725.750000", "074725.765000", "074730.734000", "074730.734000", "074730.734000", "074730.750000", "074735.734000", "074735.750000", "074735.750000", "074735.750000", "074740.734000", "074740.734000", "074740.734000", "074740.750000", "074745.734000", "074745.734000", "074745.734000", "074745.750000", "074750.734000", "074750.750000", "074750.750000", "074750.750000", "074755.734000", "074755.734000", "074755.734000", "074800.734000", "074800.734000", "074800.734000", "074800.750000", "074805.734000", "074805.734000", "074805.734000", "074805.750000", "074810.734000", "074810.734000", "074810.734000", "074810.750000", "074810.750000", "074815.734000", "074815.750000", "074815.750000", "074815.750000", "074820.734000", "074820.734000", "074820.734000", "074825.734000", "074825.734000", "074825.734000", "074825.750000", "074830.734000", "074830.734000", "074830.734000", "074830.750000", "074835.734000", "074835.734000", "074835.734000", "074835.750000", "074840.734000", "074840.734000", "074840.734000", "074840.750000", "074845.734000", "074845.750000", "074845.750000", "074845.750000", "074845.750000", "074850.734000", "074850.734000", "074850.734000", "074855.734000", "074855.734000", "074855.734000", "074855.750000", "074900.734000", "074900.734000", "074900.734000", "074900.750000", "074905.734000", "074905.734000", "074905.734000", "074905.750000", "074910.734000", "074910.734000", "074910.734000", "074910.750000", "074915.734000", "074915.734000", "074915.734000", "074915.750000", "074920.734000", "074920.734000", "074920.734000", "074920.750000", "074925.734000", "074925.734000", "074925.734000", "074925.750000", "074930.734000", "074930.734000", "074930.734000", "074930.750000", "074935.734000", "074935.734000", "074935.750000", "074935.750000", "074940.734000", "074940.734000", "074940.734000", "074940.750000", "074945.734000", "074945.734000", "074945.734000", "074950.734000", "074950.734000", "074950.734000", "074950.750000", "074950.750000", "074955.734000", "074955.734000", "074955.734000", "074955.750000", "075000.734000", "075000.734000", "075000.734000", "075005.734000", "075005.734000", "075005.734000", "075005.750000", "075010.734000", "075010.734000", "075010.734000", "075010.750000", "075015.734000", "075015.734000", "075015.734000", "075015.750000", "075020.734000", "075020.734000", "075020.734000", "075020.750000", "075025.734000", "075025.734000", "075025.750000", "075025.750000", "075030.734000", "075030.734000", "075030.734000", "075030.750000", "075035.734000", "075035.734000", "075035.734000", "075035.750000", "075040.734000", "075040.734000", "075040.734000", "075040.750000", "075045.734000", "075045.734000", "075045.734000", "075045.750000", "075050.734000", "075050.734000", "075050.734000", "075050.750000", "075055.734000", "075055.734000", "075055.734000", "075055.750000", "075100.734000", "075100.734000", "075100.750000", "075105.734000", "075105.734000", "075105.750000", "075105.750000", "075110.734000", "075110.734000", "075110.734000", "075110.750000", "075115.734000", "075115.734000", "075115.734000", "075115.750000", "075115.750000", "075120.734000", "075120.734000", "075120.734000", "075120.750000", "075125.734000", "075125.734000", "075125.734000", "075125.750000", "075130.734000", "075130.734000", "075130.734000", "075130.750000", "075135.734000", "075135.734000", "075135.734000", "075140.734000", "075140.734000", "075140.734000", "075140.750000", "075140.750000", "075145.734000", "075145.734000", "075145.734000", "075145.750000", "075150.734000", "075150.734000", "075150.734000", "075155.734000", "075155.734000", "075155.734000", "075155.750000", "075200.734000", "075200.734000", "075200.734000", "075200.750000", "075205.734000", "075205.734000", "075205.734000", "075205.750000", "075210.734000", "075210.734000", "075210.734000", "075210.750000", "075215.734000", "075215.734000", "075215.750000", "075215.750000", "075220.734000", "075220.734000", "075220.750000", "075220.750000", "075225.734000", "075225.734000", "075225.734000", "075225.750000", "075230.734000", "075230.734000", "075230.734000", "075230.750000", "075235.734000", "075235.734000", "075235.750000", "075235.750000", "075240.734000", "075240.734000", "075240.734000", "075240.750000", "075240.750000", "075245.734000", "075245.734000", "075245.734000", "075245.750000", "075250.734000", "075250.750000", "075250.750000", "075250.750000", "075255.734000", "075255.734000", "075255.734000", "075255.750000", "075300.734000", "075300.734000", "075300.734000", "075300.750000", "075305.734000", "075305.734000", "075305.734000", "075305.750000", "075305.750000", "075310.734000", "075310.734000", "075310.734000", "075310.750000", "075315.734000", "075315.734000", "075315.734000", "075315.750000", "075316.000000"], "InstanceCreationTime": ["074521.140000", "074525.734000", "074525.734000", "074525.734000", "074530.734000", "074530.734000", "074530.734000", "074530.750000", "074530.750000", "074535.734000", "074535.734000", "074535.750000", "074535.750000", "074540.734000", "074540.734000", "074540.734000", "074540.750000", "074545.734000", "074545.734000", "074545.750000", "074550.734000", "074550.734000", "074550.734000", "074550.765000", "074550.765000", "074555.734000", "074555.734000", "074555.734000", "074555.750000", "074600.734000", "074600.734000", "074600.734000", "074600.750000", "074605.734000", "074605.734000", "074605.750000", "074610.734000", "074610.734000", "074610.734000", "074610.750000", "074615.734000", "074615.734000", "074615.750000", "074615.750000", "074620.734000", "074620.734000", "074620.734000", "074620.750000", "074620.750000", "074625.734000", "074625.734000", "074625.734000", "074625.750000", "074630.734000", "074630.734000", "074630.750000", "074635.734000", "074635.734000", "074635.734000", "074635.750000", "074635.750000", "074640.734000", "074640.734000", "074640.734000", "074645.734000", "074645.734000", "074645.734000", "074645.750000", "074650.734000", "074650.734000", "074650.734000", "074650.750000", "074655.734000", "074655.750000", "074655.750000", "074655.750000", "074700.734000", "074700.734000", "074700.734000", "074700.750000", "074705.734000", "074705.734000", "074705.734000", "074705.750000", "074710.734000", "074710.734000", "074710.734000", "074710.750000", "074715.734000", "074715.750000", "074715.750000", "074715.750000", "074720.734000", "074720.734000", "074720.734000", "074720.750000", "074725.734000", "074725.734000", "074725.750000", "074725.765000", "074730.734000", "074730.734000", "074730.734000", "074730.750000", "074735.734000", "074735.750000", "074735.750000", "074735.750000", "074740.734000", "074740.734000", "074740.734000", "074740.750000", "074745.734000", "074745.734000", "074745.734000", "074745.750000", "074750.734000", "074750.750000", "074750.750000", "074750.750000", "074755.734000", "074755.734000", "074755.734000", "074800.734000", "074800.734000", "074800.734000", "074800.750000", "074805.734000", "074805.734000", "074805.734000", "074805.750000", "074810.734000", "074810.734000", "074810.734000", "074810.750000", "074810.750000", "074815.734000", "074815.750000", "074815.750000", "074815.750000", "074820.734000", "074820.734000", "074820.734000", "074825.734000", "074825.734000", "074825.734000", "074825.750000", "074830.734000", "074830.734000", "074830.734000", "074830.750000", "074835.734000", "074835.734000", "074835.734000", "074835.750000", "074840.734000", "074840.734000", "074840.734000", "074840.750000", "074845.734000", "074845.750000", "074845.750000", "074845.750000", "074845.750000", "074850.734000", "074850.734000", "074850.734000", "074855.734000", "074855.734000", "074855.734000", "074855.750000", "074900.734000", "074900.734000", "074900.734000", "074900.750000", "074905.734000", "074905.734000", "074905.734000", "074905.750000", "074910.734000", "074910.734000", "074910.734000", "074910.750000", "074915.734000", "074915.734000", "074915.734000", "074915.750000", "074920.734000", "074920.734000", "074920.734000", "074920.750000", "074925.734000", "074925.734000", "074925.734000", "074925.750000", "074930.734000", "074930.734000", "074930.734000", "074930.750000", "074935.734000", "074935.734000", "074935.750000", "074935.750000", "074940.734000", "074940.734000", "074940.734000", "074940.750000", "074945.734000", "074945.734000", "074945.734000", "074950.734000", "074950.734000", "074950.734000", "074950.750000", "074950.750000", "074955.734000", "074955.734000", "074955.734000", "074955.750000", "075000.734000", "075000.734000", "075000.734000", "075005.734000", "075005.734000", "075005.734000", "075005.750000", "075010.734000", "075010.734000", "075010.734000", "075010.750000", "075015.734000", "075015.734000", "075015.734000", "075015.750000", "075020.734000", "075020.734000", "075020.734000", "075020.750000", "075025.734000", "075025.734000", "075025.750000", "075025.750000", "075030.734000", "075030.734000", "075030.734000", "075030.750000", "075035.734000", "075035.734000", "075035.734000", "075035.750000", "075040.734000", "075040.734000", "075040.734000", "075040.750000", "075045.734000", "075045.734000", "075045.734000", "075045.750000", "075050.734000", "075050.734000", "075050.734000", "075050.750000", "075055.734000", "075055.734000", "075055.734000", "075055.750000", "075100.734000", "075100.734000", "075100.750000", "075105.734000", "075105.734000", "075105.750000", "075105.750000", "075110.734000", "075110.734000", "075110.734000", "075110.750000", "075115.734000", "075115.734000", "075115.734000", "075115.750000", "075115.750000", "075120.734000", "075120.734000", "075120.734000", "075120.750000", "075125.734000", "075125.734000", "075125.734000", "075125.750000", "075130.734000", "075130.734000", "075130.734000", "075130.750000", "075135.734000", "075135.734000", "075135.734000", "075140.734000", "075140.734000", "075140.734000", "075140.750000", "075140.750000", "075145.734000", "075145.734000", "075145.734000", "075145.750000", "075150.734000", "075150.734000", "075150.734000", "075155.734000", "075155.734000", "075155.734000", "075155.750000", "075200.734000", "075200.734000", "075200.734000", "075200.750000", "075205.734000", "075205.734000", "075205.734000", "075205.750000", "075210.734000", "075210.734000", "075210.734000", "075210.750000", "075215.734000", "075215.734000", "075215.750000", "075215.750000", "075220.734000", "075220.734000", "075220.750000", "075220.750000", "075225.734000", "075225.734000", "075225.734000", "075225.750000", "075230.734000", "075230.734000", "075230.734000", "075230.750000", "075235.734000", "075235.734000", "075235.750000", "075235.750000", "075240.734000", "075240.734000", "075240.734000", "075240.750000", "075240.750000", "075245.734000", "075245.734000", "075245.734000", "075245.750000", "075250.734000", "075250.750000", "075250.750000", "075250.750000", "075255.734000", "075255.734000", "075255.734000", "075255.750000", "075300.734000", "075300.734000", "075300.734000", "075300.750000", "075305.734000", "075305.734000", "075305.734000", "075305.750000", "075305.750000", "075310.734000", "075310.734000", "075310.734000", "075310.750000", "075315.734000", "075315.734000", "075315.734000", "075315.750000", "075316.000000"], "InstanceNumber": [1, 2, 3, 4, 5, 6, 7, 8, 9, 10, 11, 12, 13, 14, 15, 16, 17, 18, 19, 20, 21, 22, 23, 24, 25, 26, 27, 28, 29, 30, 31, 32, 33, 34, 35, 36, 37, 38, 39, 40, 41, 42, 43, 44, 45, 46, 47, 48, 49, 50, 51, 52, 53, 54, 55, 56, 57, 58, 59, 60, 61, 62, 63, 64, 65, 66, 67, 68, 69, 70, 71, 72, 73, 74, 75, 76, 77, 78, 79, 80, 81, 82, 83, 84, 85, 86, 87, 88, 89, 90, 91, 92, 93, 94, 95, 96, 97, 98, 99, 100, 101, 102, 103, 104, 105, 106, 107, 108, 109, 110, 111, 112, 113, 114, 115, 116, 117, 118, 119, 120, 121, 122, 123, 124, 125, 126, 127, 128, 129, 130, 131, 132, 133, 134, 135, 136, 137, 138, 139, 140, 141, 142, 143, 144, 145, 146, 147, 148, 149, 150, 151, 152, 153, 154, 155, 156, 157, 158, 159, 160, 161, 162, 163, 164, 165, 166, 167, 168, 169, 170, 171, 172, 173, 174, 175, 176, 177, 178, 179, 180, 181, 182, 183, 184, 185, 186, 187, 188, 189, 190, 191, 192, 193, 194, 195, 196, 197, 198, 199, 200, 201, 202, 203, 204, 205, 206, 207, 208, 209, 210, 211, 212, 213, 214, 215, 216, 217, 218, 219, 220, 221, 222, 223, 224, 225, 226, 227, 228, 229, 230, 231, 232, 233, 234, 235, 236, 237, 238, 239, 240, 241, 242, 243, 244, 245, 246, 247, 248, 249, 250, 251, 252, 253, 254, 255, 256, 257, 258, 259, 260, 261, 262, 263, 264, 265, 266, 267, 268, 269, 270, 271, 272, 273, 274, 275, 276, 277, 278, 279, 280, 281, 282, 283, 284, 285, 286, 287, 288, 289, 290, 291, 292, 293, 294, 295, 296, 297, 298, 299, 300, 301, 302, 303, 304, 305, 306, 307, 308, 309, 310, 311, 312, 313, 314, 315, 316, 317, 318, 319, 320, 321, 322, 323, 324, 325, 326, 327, 328, 329, 330, 331, 332, 333, 334, 335, 336, 337, 338, 339, 340, 341, 342, 343, 344, 345, 346, 347, 348, 349, 350, 351, 352, 353, 354, 355, 356, 357, 358, 359, 360, 361, 362, 363, 364, 365, 366, 367, 368, 369, 370, 371, 372, 373, 374, 375, 376, 377, 378, 379, 380], "LargestImagePixelValue": [22293, 22221, 23821, 21765, 25613, 21868, 25709, 22950, 23162, 27314, 22551, 25253, 22056, 21541, 25910, 23748, 27151, 21556, 26644, 21734, 22568, 25636, 21600, 26712, 23203, 27186, 22022, 22201, 26358, 22497, 26545, 21707, 25242, 21658, 21757, 26819, 21769, 27219, 21699, 26117, 22625, 21683, 26574, 21762, 29350, 21493, 21353, 26203, 22921, 24325, 21715, 28034, 21564, 25165, 21501, 21589, 23951, 22324, 24667, 21959, 21214, 22338, 21557, 27561, 21615, 27198, 21610, 23237, 22421, 22099, 28510, 21814, 26333, 21647, 21359, 24589, 21802, 24325, 22314, 21573, 26573, 22878, 26368, 24615, 21307, 29315, 22951, 26207, 22181, 23068, 28532, 21907, 24185, 22432, 21220, 26499, 23307, 24888, 21910, 23977, 26130, 24015, 26669, 22317, 24395, 23782, 22974, 25899, 22755, 24448, 22962, 25354, 22211, 25988, 21526, 25101, 21931, 23256, 21288, 21250, 22931, 24616, 21327, 21187, 23853, 22270, 21693, 27616, 21020, 26726, 22716, 26906, 21947, 26171, 21321, 21948, 21196, 20955, 22924, 21203, 23122, 22410, 24314, 21243, 25312, 23685, 25391, 22381, 25142, 21148, 25719, 21464, 26841, 22086, 23749, 21147, 22673, 23077, 21037, 24458, 22679, 23063, 22166, 22322, 21576, 25815, 21067, 24958, 21510, 23943, 21067, 23426, 21225, 22235, 23162, 21145, 22306, 21295, 26285, 21285, 26204, 22498, 25460, 21453, 21571, 26530, 21199, 26260, 21961, 22394, 21605, 21455, 22475, 21565, 21969, 22179, 21404, 22583, 21547, 21271, 21619, 21243, 22765, 21195, 25369, 21968, 21225, 23806, 21640, 22768, 21196, 21666, 21384, 25624, 21095, 23837, 22349, 23695, 21124, 25576, 21125, 25169, 21285, 25371, 21405, 21917, 21316, 23626, 21265, 21428, 24373, 21200, 21262, 21216, 21854, 21901, 21100, 23546, 21054, 24515, 21375, 21286, 22012, 20998, 22275, 24229, 21189, 20769, 24791, 21815, 22884, 22956, 23644, 24086, 22120, 21447, 21846, 22451, 25598, 21199, 20989, 21930, 22818, 21319, 25922, 24327, 20932, 21460, 23314, 21530, 22007, 25