{"AcquisitionMatrixPE": 96, "AcquisitionNumber": 1, "AcquisitionTime": "07:34:55.460000", "BandwidthPerPixelPhaseEncode": 33.602, "BaseResolution": 96, "BodyPartExamined": "BRAIN", "ConsistencyInfo": "N4_VD11D_LATEST_20110129", "ConversionSoftware": "dcm2niix", "ConversionSoftwareVersion": "v1.0.20210317", "DerivedVendorReportedEchoSpacing": 0.000620003, "DeviceSerialNumber": "45239", "DwellTime": 2.6e-06, "EchoTime": 0.03, "EchoTrainLength": 48, "EffectiveEchoSpacing": 0.000310001, "FlipAngle": 63, "ImageComments": "Unaliased MB4/PE3", "ImageOrientationPatientDICOM": [0.999065, -0.00432886, 0.0430134, 0.0277422, 0.827279, -0.561106], "ImageType": ["ORIGINAL", "PRIMARY", "M", "ND", "NORM", "MOSAIC"], "ImagingFrequency": 123.193, "InPlanePhaseEncodingDirectionDICOM": "COL", "InstitutionAddress": "E 24th St. 100,Austin,Southmiddle,US,78712", "InstitutionName": "Univ of Texas at Austin", "InstitutionalDepartmentName": "IRC", "MRAcquisitionType": "2D", "MagneticFieldStrength": 3, "Manufacturer": "Siemens", "ManufacturersModelName": "Skyra", "Modality": "MR", "MultibandAccelerationFactor": 4, "ParallelReductionFactorInPlane": 2, "PartialFourier": 1, "PatientPosition": "HFS", "PercentPhaseFOV": 100, "PercentSampling": 100, "PhaseEncodingDirection": "j-", "PhaseEncodingSteps": 96, "PhaseResolution": 1, "PixelBandwidth": 2005, "ProcedureStepDescription": "Poldrack2^self-scanning", "ProtocolName": "Resting State fMRI MBEPI_matrix96_BW2004", "PulseSequenceDetails": "%CustomerSeq%\\cmrr_mbep2d_bold", "ReceiveCoilActiveElements": "HEA;HEP", "ReceiveCoilName": "Head_32", "ReconMatrixPE": 96, "RefLinesPE": 94, "RepetitionTime": 1.16, "SAR": 0.103503, "ScanOptions": "FS", "ScanningSequence": "EP", "SequenceName": "epfid2d1_96", "SequenceVariant": "SK", "SeriesDescription": "Resting State fMRI MBEPI_matrix96_BW2004", "SeriesNumber": 14, "ShimSetting": [-2774, 8076, -15491, 130, -208, 146, 191, -90], "SliceThickness": 2, "SliceTiming": [0, 0.4975, 0.9975, 0.355, 0.855, 0.2125, 0.7125, 0.07, 0.57, 1.0675, 0.4275, 0.925, 0.285, 0.7825, 0.1425, 0.64, 0, 0.4975, 0.9975, 0.355, 0.855, 0.2125, 0.7125, 0.07, 0.57, 1.0675, 0.4275, 0.925, 0.285, 0.7825, 0.1425, 0.64, 0, 0.4975, 0.9975, 0.355, 0.855, 0.2125, 0.7125, 0.07, 0.57, 1.0675, 0.4275, 0.925, 0.285, 0.7825, 0.1425, 0.64, 0, 0.4975, 0.9975, 0.355, 0.855, 0.2125, 0.7125, 0.07, 0.57, 1.0675, 0.4275, 0.925, 0.285, 0.7825, 0.1425, 0.64], "SoftwareVersions": "syngo MR D11", "SpacingBetweenSlices": 2.4, "StationName": "AWP45239", "TaskName": "Resting fmri", "TotalReadoutTime": 0.0294501, "TxRefAmp": 344.791, "WipMemBlock": "26d8c33b-d067-43c8-8281-c461911e31eb||Sequence: VD11D r195; Nov 21 2012 15:36:10 by eja", "dcmmeta_affine": [[-2.3935933113098145, 0.06646564602851868, 0.07957238703966141, 112.96101379394531], [0.010371223092079163, 1.982023000717163, -1.348258376121521, -72.15766906738281], [0.10305298864841461, 1.344315528869629, 1.983902096748352, -87.68968200683594], [0.0, 0.0, 0.0, 1.0]], "dcmmeta_reorient_transform": [[0.0, -1.0, 0.0, 95.0], [1.0, 0.0, 0.0, 0.0], [0.0, 0.0, 1.0, 0.0], [0.0, 0.0, 0.0, 1.0]], "dcmmeta_shape": [96, 96, 64, 518], "dcmmeta_slice_dim": 2, "dcmmeta_version": 0.6, "global": {"const": {"AcquisitionMatrix": [96, 0, 0, 96], "AngioFlag": "N", "BitsAllocated": 16, "BitsStored": 16, "BodyPartExamined": "BRAIN", "Columns": 768, "EchoNumbers": 1, "EchoTime": 30.0, "EchoTrainLength": 48, "FlipAngle": 63.0, "HighBit": 15, "ImageOrientationPatient": [0.99906511627898, -0.0043288586364, 0.04301342136326, 0.0277421829025, 0.82727918659806, -0.5611056217054], "ImagePositionPatient": [-945.85510141369, -778.60950633136, 457.08449623278], "ImageType": ["ORIGINAL", "PRIMARY", "M", "ND", "NORM", "MOSAIC"], "ImagedNucleus": "1H", "ImagingFrequency": 123.193407, "InPlanePhaseEncodingDirection": "COL", "MRAcquisitionType": "2D", "MagneticFieldStrength": 3.0, "Manufacturer": "SIEMENS", "ManufacturerModelName": "Skyra", "Modality": "MR", "NumberOfAverages": 1.0, "NumberOfPhaseEncodingSteps": 96, "PercentPhaseFieldOfView": 100.0, "PercentSampling": 100.0, "PerformedProcedureStepStartTime": "070945.703000", "PhotometricInterpretation": "MONOCHROME2", "PixelBandwidth": 2005.0, "PixelRepresentation": 0, "PixelSpacing": [2.3958332538605, 2.3958332538605], "ProtocolName": "Resting State fMRI MBEPI_matrix96_BW2004", "RepetitionTime": 1160.0, "Rows": 768, "SAR": 0.10350290670859, "SamplesPerPixel": 1, "ScanOptions": "FS", "ScanningSequence": "EP", "SequenceName": "epfid2d1_96", "SequenceVariant": "SK", "SeriesDescription": "Resting State fMRI MBEPI_matrix96_BW2004", "SeriesNumber": 14, "SeriesTime": "073538.687000", "SliceLocation": -28.204993806053, "SliceThickness": 2.0, "SmallestImagePixelValue": 0, "SoftwareVersions": "syngo MR D11", "SpacingBetweenSlices": 2.3999999617433, "SpecificCharacterSet": "ISO_IR 100", "StudyID": "1", "StudyTime": "070945.671000", "TransmitCoilName": "Body", "VariableFlipAngleFlag": "N", "WindowCenterWidthExplanation": "Algo1", "dBdt": 0.0}, "slices": {}}, "time": {"samples": {"AcquisitionNumber": [1, 2, 3, 4, 5, 6, 7, 8, 9, 10, 11, 12, 13, 14, 15, 16, 17, 18, 19, 20, 21, 22, 23, 24, 25, 26, 27, 28, 29, 30, 31, 32, 33, 34, 35, 36, 37, 38, 39, 40, 41, 42, 43, 44, 45, 46, 47, 48, 49, 50, 51, 52, 53, 54, 55, 56, 57, 58, 59, 60, 61, 62, 63, 64, 65, 66, 67, 68, 69, 70, 71, 72, 73, 74, 75, 76, 77, 78, 79, 80, 81, 82, 83, 84, 85, 86, 87, 88, 89, 90, 91, 92, 93, 94, 95, 96, 97, 98, 99, 100, 101, 102, 103, 104, 105, 106, 107, 108, 109, 110, 111, 112, 113, 114, 115, 116, 117, 118, 119, 120, 121, 122, 123, 124, 125, 126, 127, 128, 129, 130, 131, 132, 133, 134, 135, 136, 137, 138, 139, 140, 141, 142, 143, 144, 145, 146, 147, 148, 149, 150, 151, 152, 153, 154, 155, 156, 157, 158, 159, 160, 161, 162, 163, 164, 165, 166, 167, 168, 169, 170, 171, 172, 173, 174, 175, 176, 177, 178, 179, 180, 181, 182, 183, 184, 185, 186, 187, 188, 189, 190, 191, 192, 193, 194, 195, 196, 197, 198, 199, 200, 201, 202, 203, 204, 205, 206, 207, 208, 209, 210, 211, 212, 213, 214, 215, 216, 217, 218, 219, 220, 221, 222, 223, 224, 225, 226, 227, 228, 229, 230, 231, 232, 233, 234, 235, 236, 237, 238, 239, 240, 241, 242, 243, 244, 245, 246, 247, 248, 249, 250, 251, 252, 253, 254, 255, 256, 257, 258, 259, 260, 261, 262, 263, 264, 265, 266, 267, 268, 269, 270, 271, 272, 273, 274, 275, 276, 277, 278, 279, 280, 281, 282, 283, 284, 285, 286, 287, 288, 289, 290, 291, 292, 293, 294, 295, 296, 297, 298, 299, 300, 301, 302, 303, 304, 305, 306, 307, 308, 309, 310, 311, 312, 313, 314, 315, 316, 317, 318, 319, 320, 321, 322, 323, 324, 325, 326, 327, 328, 329, 330, 331, 332, 333, 334, 335, 336, 337, 338, 339, 340, 341, 342, 343, 344, 345, 346, 347, 348, 349, 350, 351, 352, 353, 354, 355, 356, 357, 358, 359, 360, 361, 362, 363, 364, 365, 366, 367, 368, 369, 370, 371, 372, 373, 374, 375, 376, 377, 378, 379, 380, 381, 382, 383, 384, 385, 386, 387, 388, 389, 390, 391, 392, 393, 394, 395, 396, 397, 398, 399, 400, 401, 402, 403, 404, 405, 406, 407, 408, 409, 410, 411, 412, 413, 414, 415, 416, 417, 418, 419, 420, 421, 422, 423, 424, 425, 426, 427, 428, 429, 430, 431, 432, 433, 434, 435, 436, 437, 438, 439, 440, 441, 442, 443, 444, 445, 446, 447, 448, 449, 450, 451, 452, 453, 454, 455, 456, 457, 458, 459, 460, 461, 462, 463, 464, 465, 466, 467, 468, 469, 470, 471, 472, 473, 474, 475, 476, 477, 478, 479, 480, 481, 482, 483, 484, 485, 486, 487, 488, 489, 490, 491, 492, 493, 494, 495, 496, 497, 498, 499, 500, 501, 502, 503, 504, 505, 506, 507, 508, 509, 510, 511, 512, 513, 514, 515, 516, 517, 518], "AcquisitionTime": ["073455.460000", "073524.460000", "073525.620000", "073526.780000", "073527.940000", "073529.100000", "073530.260000", "073531.420000", "073532.580000", "073533.740000", "073534.900000", "073536.060000", "073537.220000", "073538.380000", "073539.540000", "073540.700000", "073541.860000", "073543.020000", "073544.180000", "073545.340000", "073546.500000", "073547.660000", "073548.820000", "073549.980000", "073551.140000", "073552.300000", "073553.460000", "073554.620000", "073555.780000", "073556.940000", "073558.100000", "073559.260000", "073600.420000", "073601.580000", "073602.740000", "073603.900000", "073605.060000", "073606.220000", "073607.380000", "073608.540000", "073609.700000", "073610.860000", "073612.020000", "073613.180000", "073614.340000", "073615.500000", "073616.660000", "073617.820000", "073618.980000", "073620.140000", "073621.300000", "073622.460000", "073623.620000", "073624.780000", "073625.940000", "073627.100000", "073628.260000", "073629.420000", "073630.580000", "073631.740000", "073632.900000", "073634.060000", "073635.220000", "073636.380000", "073637.540000", "073638.700000", "073639.860000", "073641.020000", "073642.180000", "073643.340000", "073644.500000", "073645.660000", "073646.820000", "073647.980000", "073649.140000", "073650.300000", "073651.460000", "073652.620000", "073653.780000", "073654.940000", "073656.100000", "073657.260000", "073658.420000", "073659.580000", "073700.740000", "073701.900000", "073703.060000", "073704.220000", "073705.380000", "073706.540000", "073707.700000", "073708.860000", "073710.020000", "073711.180000", "073712.340000", "073713.500000", "073714.660000", "073715.820000", "073716.980000", "073718.140000", "073719.300000", "073720.460000", "073721.620000", "073722.780000", "073723.940000", "073725.100000", "073726.260000", "073727.420000", "073728.580000", "073729.740000", "073730.900000", "073732.060000", "073733.220000", "073734.380000", "073735.540000", "073736.700000", "073737.860000", "073739.020000", "073740.180000", "073741.340000", "073742.500000", "073743.660000", "073744.820000", "073745.980000", "073747.140000", "073748.300000", "073749.460000", "073750.620000", "073751.780000", "073752.940000", "073754.100000", "073755.260000", "073756.420000", "073757.580000", "073758.740000", "073759.900000", "073801.062500", "073802.222500", "073803.382500", "073804.542500", "073805.702500", "073806.862500", "073808.022500", "073809.182500", "073810.342500", "073811.502500", "073812.662500", "073813.822500", "073814.982500", "073816.142500", "073817.302500", "073818.462500", "073819.622500", "073820.782500", "073821.942500", "073823.102500", "073824.262500", "073825.422500", "073826.582500", "073827.742500", "073828.902500", "073830.062500", "073831.222500", "073832.382500", "073833.542500", "073834.702500", "073835.862500", "073837.022500", "073838.182500", "073839.342500", "073840.502500", "073841.662500", "073842.822500", "073843.982500", "073845.142500", "073846.302500", "073847.462500", "073848.622500", "073849.782500", "073850.942500", "073852.102500", "073853.262500", "073854.422500", "073855.582500", "073856.742500", "073857.902500", "073859.062500", "073900.222500", "073901.382500", "073902.542500", "073903.702500", "073904.862500", "073906.022500", "073907.182500", "073908.342500", "073909.502500", "073910.662500", "073911.822500", "073912.982500", "073914.142500", "073915.302500", "073916.462500", "073917.622500", "073918.782500", "073919.942500", "073921.102500", "073922.262500", "073923.422500", "073924.582500", "073925.742500", "073926.902500", "073928.062500", "073929.222500", "073930.382500", "073931.542500", "073932.702500", "073933.862500", "073935.022500", "073936.182500", "073937.342500", "073938.502500", "073939.662500", "073940.822500", "073941.982500", "073943.142500", "073944.302500", "073945.462500", "073946.622500", "073947.782500", "073948.942500", "073950.102500", "073951.262500", "073952.422500", "073953.582500", "073954.742500", "073955.902500", "073957.062500", "073958.222500", "073959.382500", "074000.542500", "074001.702500", "074002.862500", "074004.022500", "074005.182500", "074006.342500", "074007.502500", "074008.662500", "074009.822500", "074010.982500", "074012.142500", "074013.302500", "074014.462500", "074015.622500", "074016.782500", "074017.942500", "074019.102500", "074020.262500", "074021.422500", "074022.582500", "074023.742500", "074024.902500", "074026.062500", "074027.222500", "074028.382500", "074029.542500", "074030.702500", "074031.862500", "074033.022500", "074034.182500", "074035.342500", "074036.502500", "074037.662500", "074038.822500", "074039.982500", "074041.142500", "074042.302500", "074043.462500", "074044.622500", "074045.782500", "074046.942500", "074048.102500", "074049.262500", "074050.422500", "074051.582500", "074052.742500", "074053.902500", "074055.062500", "074056.222500", "074057.382500", "074058.542500", "074059.702500", "074100.862500", "074102.022500", "074103.182500", "074104.342500", "074105.502500", "074106.662500", "074107.822500", "074108.982500", "074110.142500", "074111.302500", "074112.462500", "074113.622500", "074114.782500", "074115.942500", "074117.102500", "074118.262500", "074119.422500", "074120.582500", "074121.742500", "074122.902500", "074124.062500", "074125.222500", "074126.382500", "074127.542500", "074128.702500", "074129.862500", "074131.022500", "074132.182500", "074133.342500", "074134.502500", "074135.662500", "074136.822500", "074137.982500", "074139.142500", "074140.302500", "074141.462500", "074142.622500", "074143.782500", "074144.942500", "074146.102500", "074147.262500", "074148.422500", "074149.582500", "074150.742500", "074151.902500", "074153.062500", "074154.222500", "074155.382500", "074156.542500", "074157.702500", "074158.862500", "074200.022500", "074201.182500", "074202.342500", "074203.502500", "074204.662500", "074205.822500", "074206.982500", "074208.142500", "074209.302500", "074210.462500", "074211.622500", "074212.782500", "074213.942500", "074215.102500", "074216.262500", "074217.422500", "074218.582500", "074219.742500", "074220.902500", "074222.062500", "074223.222500", "074224.382500", "074225.542500", "074226.702500", "074227.862500", "074229.022500", "074230.182500", "074231.342500", "074232.502500", "074233.662500", "074234.822500", "074235.982500", "074237.142500", "074238.302500", "074239.462500", "074240.622500", "074241.782500", "074242.942500", "074244.102500", "074245.262500", "074246.422500", "074247.582500", "074248.742500", "074249.902500", "074251.065000", "074252.225000", "074253.385000", "074254.545000", "074255.705000", "074256.865000", "074258.025000", "074259.185000", "074300.345000", "074301.505000", "074302.665000", "074303.825000", "074304.985000", "074306.145000", "074307.305000", "074308.465000", "074309.625000", "074310.785000", "074311.945000", "074313.105000", "074314.265000", "074315.425000", "074316.585000", "074317.745000", "074318.905000", "074320.065000", "074321.225000", "074322.385000", "074323.545000", "074324.705000", "074325.865000", "074327.025000", "074328.185000", "074329.345000", "074330.505000", "074331.665000", "074332.825000", "074333.985000", "074335.145000", "074336.305000", "074337.465000", "074338.625000", "074339.785000", "074340.945000", "074342.105000", "074343.265000", "074344.425000", "074345.585000", "074346.745000", "074347.905000", "074349.065000", "074350.225000", "074351.385000", "074352.545000", "074353.705000", "074354.865000", "074356.025000", "074357.185000", "074358.345000", "074359.505000", "074400.665000", "074401.825000", "074402.985000", "074404.145000", "074405.305000", "074406.465000", "074407.625000", "074408.785000", "074409.945000", "074411.105000", "074412.265000", "074413.425000", "074414.585000", "074415.745000", "074416.905000", "074418.065000", "074419.225000", "074420.385000", "074421.545000", "074422.705000", "074423.865000", "074425.025000", "074426.185000", "074427.345000", "074428.505000", "074429.665000", "074430.825000", "074431.985000", "074433.145000", "074434.305000", "074435.465000", "074436.625000", "074437.785000", "074438.945000", "074440.105000", "074441.265000", "074442.425000", "074443.585000", "074444.745000", "074445.905000", "074447.065000", "074448.225000", "074449.385000", "074450.545000", "074451.705000", "074452.865000", "074454.025000", "074455.185000", "074456.345000", "074457.505000", "074458.665000", "074459.825000", "074500.985000", "074502.145000", "074503.305000", "074504.465000", "074505.625000", "074506.785000", "074507.945000", "074509.105000", "074510.265000", "074511.425000", "074512.585000", "074513.745000", "074514.905000", "074516.065000", "074517.225000", "074518.385000", "074519.545000", "074520.705000", "074521.865000", "074523.025000"], "ContentTime": ["073538.703000", "073547.750000", "073547.750000", "073547.750000", "073547.765000", "073547.765000", "073547.765000", "073547.765000", "073547.765000", "073552.750000", "073552.750000", "073552.750000", "073552.765000", "073557.750000", "073557.750000", "073557.750000", "073557.765000", "073602.750000", "073602.750000", "073602.750000", "073602.765000", "073607.750000", "073607.765000", "073607.765000", "073607.765000", "073612.750000", "073612.750000", "073612.750000", "073612.765000", "073617.750000", "073617.750000", "073617.765000", "073617.765000", "073617.765000", "073622.750000", "073622.750000", "073622.750000", "073622.765000", "073627.750000", "073627.750000", "073627.750000", "073627.765000", "073632.750000", "073632.765000", "073632.765000", "073632.765000", "073637.750000", "073637.750000", "073637.750000", "073637.765000", "073642.750000", "073642.750000", "073642.750000", "073642.765000", "073647.750000", "073647.750000", "073647.750000", "073647.765000", "073652.750000", "073652.750000", "073652.750000", "073652.765000", "073657.750000", "073657.828000", "073657.828000", "073657.828000", "073702.750000", "073702.750000", "073702.750000", "073702.765000", "073707.750000", "073707.750000", "073707.750000", "073707.765000", "073712.750000", "073712.750000", "073712.765000", "073712.765000", "073717.750000", "073717.750000", "073717.750000", "073722.750000", "073722.765000", "073722.765000", "073722.765000", "073722.765000", "073727.750000", "073727.765000", "073727.765000", "073727.765000", "073732.750000", "073732.765000", "073732.765000", "073732.765000", "073737.750000", "073737.750000", "073737.750000", "073737.765000", "073742.750000", "073742.750000", "073742.750000", "073742.765000", "073747.750000", "073747.750000", "073747.750000", "073752.750000", "073752.750000", "073752.750000", "073752.765000", "073757.750000", "073757.750000", "073757.750000", "073757.765000", "073802.750000", "073802.750000", "073802.750000", "073802.765000", "073807.750000", "073807.750000", "073807.750000", "073807.765000", "073812.750000", "073812.750000", "073812.750000", "073812.765000", "073817.750000", "073817.843000", "073817.843000", "073817.843000", "073822.750000", "073822.750000", "073822.750000", "073822.765000", "073827.750000", "073827.750000", "073827.765000", "073827.765000", "073827.765000", "073832.750000", "073832.750000", "073832.750000", "073832.765000", "073837.750000", "073837.765000", "073837.765000", "073837.765000", "073842.750000", "073842.750000", "073842.765000", "073847.750000", "073847.750000", "073847.765000", "073847.765000", "073847.765000", "073852.750000", "073852.750000", "073852.750000", "073852.765000", "073857.750000", "073857.750000", "073857.750000", "073857.765000", "073902.750000", "073902.750000", "073902.750000", "073902.765000", "073907.750000", "073907.765000", "073907.765000", "073907.765000", "073912.750000", "073912.750000", "073912.765000", "073912.765000", "073917.750000", "073917.750000", "073917.750000", "073917.765000", "073922.750000", "073922.750000", "073922.750000", "073922.765000", "073927.750000", "073927.750000", "073927.750000", "073927.765000", "073932.750000", "073932.750000", "073932.750000", "073932.765000", "073937.750000", "073937.843000", "073937.843000", "073937.843000", "073942.750000", "073942.750000", "073942.765000", "073942.765000", "073947.750000", "073947.750000", "073947.750000", "073947.765000", "073952.750000", "073952.750000", "073952.750000", "073952.765000", "073957.750000", "073957.750000", "073957.750000", "073957.765000", "074002.750000", "074002.765000", "074002.765000", "074002.765000", "074007.750000", "074007.750000", "074007.750000", "074007.765000", "074012.750000", "074012.765000", "074012.765000", "074017.750000", "074017.765000", "074017.765000", "074017.765000", "074017.765000", "074022.750000", "074022.750000", "074022.750000", "074022.765000", "074027.750000", "074027.750000", "074027.765000", "074032.750000", "074032.750000", "074032.750000", "074032.765000", "074037.750000", "074037.750000", "074037.750000", "074037.765000", "074042.750000", "074042.750000", "074042.750000", "074042.781000", "074047.750000", "074047.750000", "074047.765000", "074047.765000", "074052.750000", "074052.750000", "074052.750000", "074052.765000", "074057.750000", "074057.750000", "074057.750000", "074057.765000", "074102.750000", "074102.750000", "074102.750000", "074107.750000", "074107.750000", "074107.765000", "074107.781000", "074112.750000", "074112.750000", "074112.765000", "074112.765000", "074117.750000", "074117.750000", "074117.750000", "074122.750000", "074122.750000", "074122.765000", "074122.765000", "074127.750000", "074127.750000", "074127.750000", "074127.765000", "074132.750000", "074132.750000", "074132.750000", "074132.765000", "074137.750000", "074137.750000", "074137.765000", "074137.765000", "074142.750000", "074142.750000", "074142.750000", "074147.750000", "074147.750000", "074147.750000", "074147.765000", "074152.750000", "074152.750000", "074152.750000", "074152.765000", "074202.750000", "074202.750000", "074202.750000", "074202.765000", "074202.765000", "074202.765000", "074202.765000", "074202.781000", "074207.750000", "074207.750000", "074207.765000", "074207.781000", "074212.750000", "074212.750000", "074212.750000", "074212.765000", "074217.750000", "074217.750000", "074217.750000", "074217.765000", "074222.750000", "074222.750000", "074222.750000", "074227.750000", "074227.843000", "074227.843000", "074227.859000", "074232.750000", "074232.750000", "074232.750000", "074232.765000", "074237.750000", "074237.765000", "074237.765000", "074237.765000", "074237.765000", "074242.750000", "074242.750000", "074242.750000", "074247.750000", "074247.750000", "074247.750000", "074247.765000", "074252.750000", "074252.750000", "074252.750000", "074252.765000", "074252.765000", "074257.750000", "074257.750000", "074257.750000", "074257.765000", "074302.750000", "074302.750000", "074302.765000", "074307.750000", "074307.750000", "074307.750000", "074307.765000", "074312.750000", "074312.750000", "074312.750000", "074312.765000", "074317.750000", "074317.750000", "074317.750000", "074317.765000", "074322.750000", "074322.750000", "074322.750000", "074322.765000", "074327.750000", "074327.765000", "074327.765000", "074327.765000", "074332.750000", "074332.859000", "074332.859000", "074337.750000", "074337.750000", "074337.750000", "074337.765000", "074337.765000", "074342.750000", "074342.750000", "074342.750000", "074347.750000", "074347.750000", "074347.750000", "074347.765000", "074352.750000", "074352.750000", "074352.765000", "074352.765000", "074357.750000", "074357.750000", "074357.765000", "074357.765000", "074402.750000", "074402.750000", "074402.750000", "074402.765000", "074407.750000", "074407.750000", "074407.750000", "074407.765000", "074412.750000", "074412.750000", "074412.750000", "074412.765000", "074412.765000", "074417.750000", "074417.750000", "074417.750000", "074417.765000", "074422.750000", "074422.765000", "074422.781000", "074422.781000", "074427.750000", "074427.750000", "074427.750000", "074427.765000", "074432.750000", "074432.750000", "074432.765000", "074432.781000", "074437.750000", "074437.765000", "074437.765000", "074437.765000", "074442.750000", "074442.750000", "074442.750000", "074442.765000", "074447.750000", "074447.750000", "074447.750000", "074447.765000", "074452.750000", "074452.750000", "074452.750000", "074452.765000", "074457.750000", "074457.750000", "074457.750000", "074457.765000", "074502.750000", "074502.750000", "074502.750000", "074502.765000", "074507.750000", "074507.765000", "074507.765000", "074507.781000", "074512.750000", "074512.765000", "074512.765000", "074512.765000", "074517.750000", "074517.750000", "074517.750000", "074517.765000", "074522.750000", "074522.750000", "074522.750000", "074522.765000", "074527.750000", "074527.750000", "074527.765000", "074527.765000", "074527.765000", "074532.750000", "074532.750000", "074532.750000", "074532.765000", "074537.750000", "074537.765000", "074537.765000", "074537.765000", "074542.750000", "074542.875000", "074542.875000", "074542.875000", "074542.890000", "074547.750000", "074547.750000", "074547.765000", "074547.765000", "074552.750000", "074552.750000", "074552.765000", "074552.765000", "074557.750000", "074557.750000", "074557.750000", "074557.765000", "074602.750000", "074602.750000", "074602.750000", "074602.765000", "074602.765000", "074607.750000", "074607.750000", "074607.750000", "074607.765000", "074612.750000", "074612.750000", "074612.750000", "074612.765000", "074617.750000", "074617.765000", "074617.765000", "074617.765000", "074617.765000", "074622.718000", "074622.718000", "074622.718000", "074622.718000", "074622.734000"], "InstanceCreationTime": ["073538.703000", "073547.750000", "073547.750000", "073547.750000", "073547.765000", "073547.765000", "073547.765000", "073547.765000", "073547.765000", "073552.750000", "073552.750000", "073552.750000", "073552.765000", "073557.750000", "073557.750000", "073557.750000", "073557.765000", "073602.750000", "073602.750000", "073602.750000", "073602.765000", "073607.750000", "073607.765000", "073607.765000", "073607.765000", "073612.750000", "073612.750000", "073612.750000", "073612.765000", "073617.750000", "073617.750000", "073617.765000", "073617.765000", "073617.765000", "073622.750000", "073622.750000", "073622.750000", "073622.765000", "073627.750000", "073627.750000", "073627.750000", "073627.765000", "073632.750000", "073632.765000", "073632.765000", "073632.765000", "073637.750000", "073637.750000", "073637.750000", "073637.765000", "073642.750000", "073642.750000", "073642.750000", "073642.765000", "073647.750000", "073647.750000", "073647.750000", "073647.765000", "073652.750000", "073652.750000", "073652.750000", "073652.765000", "073657.750000", "073657.828000", "073657.828000", "073657.828000", "073702.750000", "073702.750000", "073702.750000", "073702.765000", "073707.750000", "073707.750000", "073707.750000", "073707.765000", "073712.750000", "073712.750000", "073712.765000", "073712.765000", "073717.750000", "073717.750000", "073717.750000", "073722.750000", "073722.765000", "073722.765000", "073722.765000", "073722.765000", "073727.750000", "073727.765000", "073727.765000", "073727.765000", "073732.750000", "073732.765000", "073732.765000", "073732.765000", "073737.750000", "073737.750000", "073737.750000", "073737.765000", "073742.750000", "073742.750000", "073742.750000", "073742.765000", "073747.750000", "073747.750000", "073747.750000", "073752.750000", "073752.750000", "073752.750000", "073752.765000", "073757.750000", "073757.750000", "073757.750000", "073757.765000", "073802.750000", "073802.750000", "073802.750000", "073802.765000", "073807.750000", "073807.750000", "073807.750000", "073807.765000", "073812.750000", "073812.750000", "073812.750000", "073812.765000", "073817.750000", "073817.843000", "073817.843000", "073817.843000", "073822.750000", "073822.750000", "073822.750000", "073822.765000", "073827.750000", "073827.750000", "073827.765000", "073827.765000", "073827.765000", "073832.750000", "073832.750000", "073832.750000", "073832.765000", "073837.750000", "073837.765000", "073837.765000", "073837.765000", "073842.750000", "073842.750000", "073842.765000", "073847.750000", "073847.750000", "073847.765000", "073847.765000", "073847.765000", "073852.750000", "073852.750000", "073852.750000", "073852.765000", "073857.750000", "073857.750000", "073857.750000", "073857.765000", "073902.750000", "073902.750000", "073902.750000", "073902.765000", "073907.750000", "073907.765000", "073907.765000", "073907.765000", "073912.750000", "073912.750000", "073912.765000", "073912.765000", "073917.750000", "073917.750000", "073917.750000", "073917.765000", "073922.750000", "073922.750000", "073922.750000", "073922.765000", "073927.750000", "073927.750000", "073927.750000", "073927.765000", "073932.750000", "073932.750000", "073932.750000", "073932.765000", "073937.750000", "073937.843000", "073937.843000", "073937.843000", "073942.750000", "073942.750000", "073942.765000", "073942.765000", "073947.750000", "073947.750000", "073947.750000", "073947.765000", "073952.750000", "073952.750000", "073952.750000", "073952.765000", "073957.750000", "073957.750000", "073957.750000", "073957.765000", "074002.750000", "074002.765000", "074002.765000", "074002.765000", "074007.750000", "074007.750000", "074007.750000", "074007.765000", "074012.750000", "074012.765000", "074012.765000", "074017.750000", "074017.765000", "074017.765000", "074017.765000", "074017.765000", "074022.750000", "074022.750000", "074022.750000", "074022.765000", "074027.750000", "074027.750000", "074027.765000", "074032.750000", "074032.750000", "074032.750000", "074032.765000", "074037.750000", "074037.750000", "074037.750000", "074037.765000", "074042.750000", "074042.750000", "074042.750000", "074042.781000", "074047.750000", "074047.750000", "074047.765000", "074047.765000", "074052.750000", "074052.750000", "074052.750000", "074052.765000", "074057.750000", "074057.750000", "074057.750000", "074057.765000", "074102.750000", "074102.750000", "074102.750000", "074107.750000", "074107.750000", "074107.765000", "074107.781000", "074112.750000", "074112.750000", "074112.765000", "074112.765000", "074117.750000", "074117.750000", "074117.750000", "074122.750000", "074122.750000", "074122.765000", "074122.765000", "074127.750000", "074127.750000", "074127.750000", "074127.765000", "074132.750000", "074132.750000", "074132.75000