{"AcquisitionMatrixPE": 96, "AcquisitionNumber": 1, "AcquisitionTime": "07:58:44.065000", "BaseResolution": 96, "BodyPartExamined": "BRAIN", "ConsistencyInfo": "N4_VD11D_LATEST_20110129", "ConversionSoftware": "dcm2niix", "ConversionSoftwareVersion": "v1.0.20210317", "DeviceSerialNumber": "45239", "DwellTime": 9.2e-06, "EchoNumber": 2, "EchoTime": 0.00738, "EchoTime1": 0.00492, "EchoTime2": 0.00738, "FlipAngle": 50, "ImageOrientationPatientDICOM": [0.998925, 0.0174727, 0.0429297, 0.0095107, 0.829242, -0.55881], "ImageType": ["ORIGINAL", "PRIMARY", "P", "ND", "PHASE"], "ImagingFrequency": 123.193, "InPlanePhaseEncodingDirectionDICOM": "COL", "InstitutionAddress": "E 24th St. 100,Austin,Southmiddle,US,78712", "InstitutionName": "Univ of Texas at Austin", "InstitutionalDepartmentName": "IRC", "MRAcquisitionType": "2D", "MagneticFieldStrength": 3, "Manufacturer": "Siemens", "ManufacturersModelName": "Skyra", "Modality": "MR", "PartialFourier": 1, "PatientPosition": "HFS", "PercentPhaseFOV": 100, "PercentSampling": 100, "PhaseEncodingDirection": "j-", "PhaseEncodingSteps": 96, "PhaseResolution": 1, "PixelBandwidth": 565, "ProcedureStepDescription": "Poldrack2^self-scanning", "ProtocolName": "gre_field_mapping", "PulseSequenceDetails": "%SiemensSeq%\\gre_field_mapping", "ReceiveCoilActiveElements": "HEA;HEP", "ReceiveCoilName": "Head_32", "ReconMatrixPE": 96, "RepetitionTime": 0.731, "SAR": 0.110988, "ScanningSequence": "GR", "SequenceName": "*fm2d2r", "SequenceVariant": "SP", "SeriesDescription": "gre_field_mapping", "SeriesNumber": 15, "ShimSetting": [-2782, 8075, -15446, 197, -244, 182, 206, -57], "SliceThickness": 2, "SliceTiming": [0.35938, 0, 0.375, 0.00781, 0.38281, 0.01562, 0.39062, 0.02344, 0.40625, 0.03906, 0.41406, 0.04688, 0.42969, 0.0625, 0.4375, 0.07031, 0.44531, 0.07812, 0.45312, 0.09375, 0.46875, 0.10156, 0.47656, 0.11719, 0.49219, 0.125, 0.5, 0.13281, 0.51562, 0.14844, 0.52344, 0.15625, 0.53125, 0.16406, 0.54688, 0.17969, 0.55469, 0.1875, 0.5625, 0.20312, 0.57812, 0.21094, 0.58594, 0.21875, 0.59375, 0.23438, 0.60938, 0.24219, 0.61719, 0.25781, 0.63281, 0.26562, 0.64062, 0.27344, 0.64844, 0.28906, 0.66406, 0.29688, 0.67188, 0.30469, 0.6875, 0.32031, 0.69531, 0.32812, 0.70312, 0.33594, 0.71875, 0.35156], "SoftwareVersions": "syngo MR D11", "SpacingBetweenSlices": 2.4, "StationName": "AWP45239", "TxRefAmp": 330.85, "dcmmeta_affine": [[-2.3932583332061768, 0.022786056622862816, 0.1088709831237793, 114.42848205566406], [-0.04186156764626503, 1.9867243766784668, -1.3406791687011719, -64.33306884765625], [0.10285243391990662, 1.338814377784729, 1.987640380859375, -106.22445678710938], [0.0, 0.0, 0.0, 1.0]], "dcmmeta_reorient_transform": [[0.0, -1.0, 0.0, 95.0], [1.0, 0.0, 0.0, 0.0], [0.0, 0.0, -1.0, 67.0], [0.0, 0.0, 0.0, 1.0]], "dcmmeta_shape": [96, 96, 68], "dcmmeta_slice_dim": 2, "dcmmeta_version": 0.6, "global": {"const": {"AcquisitionMatrix": [96, 0, 0, 96], "AcquisitionNumber": 1, "AngioFlag": "N", "BitsAllocated": 16, "BitsStored": 12, "BodyPartExamined": "BRAIN", "Columns": 96, "EchoNumbers": 2, "EchoTime": 7.38, "EchoTrainLength": 0, "FlipAngle": 50.0, "HighBit": 11, "ImageOrientationPatient": [0.99892529548516, 0.0174726550483, 0.04292971424851, 0.00951070218132, 0.82924151731546, -0.5588094957178], "ImageType": ["ORIGINAL", "PRIMARY", "P", "ND"], "ImagedNucleus": "1H", "ImagingFrequency": 123.193344, "InPlanePhaseEncodingDirection": "COL", "MRAcquisitionType": "2D", "MagneticFieldStrength": 3.0, "Manufacturer": "SIEMENS", "ManufacturerModelName": "Skyra", "Modality": "MR", "NumberOfAverages": 1.0, "NumberOfPhaseEncodingSteps": 96, "PercentPhaseFieldOfView": 100.0, "PercentSampling": 100.0, "PerformedProcedureStepStartTime": "070925.781000", "PhotometricInterpretation": "MONOCHROME2", "PixelBandwidth": 565.0, "PixelRepresentation": 0, "PixelSpacing": [2.3958332538605, 2.3958332538605], "ProtocolName": "gre_field_mapping", "RepetitionTime": 731.0, "RescaleIntercept": -4096.0, "RescaleSlope": 2.0, "RescaleType": "US", "Rows": 96, "SAR": 0.11098848739112, "SamplesPerPixel": 1, "ScanningSequence": "GR", "SequenceName": "*fm2d2r", "SequenceVariant": "SP", "SeriesDescription": "gre_field_mapping", "SeriesNumber": 15, "SeriesTime": "080105.718000", "SliceThickness": 2.0, "SoftwareVersions": "syngo MR D11", "SpacingBetweenSlices": 2.4, "SpecificCharacterSet": "ISO_IR 100", "StudyID": "1", "StudyTime": "070925.734000", "TransmitCoilName": "Body", "VariableFlipAngleFlag": "N", "WindowCenterWidthExplanation": "Algo1", "dBdt": 0.0}, "slices": {"AcquisitionTime": ["075844.065000", "075843.700000", "075844.075000", "075843.710000", "075844.085000", "075843.720000", "075844.097500", "075843.730000", "075844.107500", "075843.742500", "075844.117500", "075843.752500", "075844.130000", "075843.762500", "075844.140000", "075843.775000", "075844.150000", "075843.785000", "075844.160000", "075843.795000", "075844.172500", "075843.807500", "075844.182500", "075843.817500", "075844.192500", "075843.827500", "075844.205000", "075843.837500", "075844.215000", "075843.850000", "075844.225000", "075843.860000", "075844.237500", "075843.870000", "075844.247500", "075843.882500", "075844.257500", "075843.892500", "075844.267500", "075843.902500", "075844.280000", "075843.915000", "075844.290000", "075843.925000", "075844.300000", "075843.935000", "075844.312500", "075843.945000", "075844.322500", "075843.957500", "075844.332500", "075843.967500", "075844.345000", "075843.977500", "075844.355000", "075843.990000", "075844.365000", "075844.000000", "075844.375000", "075844.010000", "075844.387500", "075844.022500", "075844.397500", "075844.032500", "075844.407500", "075844.042500", "075844.420000", "075844.052500"], "ContentTime": ["080105.796000", "080105.718000", "080105.796000", "080105.718000", "080105.796000", "080105.734000", "080105.796000", "080105.734000", "080105.796000", "080105.734000", "080105.796000", "080105.734000", "080105.796000", "080105.734000", "080105.796000", "080105.750000", "080105.812000", "080105.750000", "080105.812000", "080105.750000", "080105.812000", "080105.750000", "080105.812000", "080105.750000", "080105.812000", "080105.750000", "080105.828000", "080105.750000", "080105.828000", "080105.750000", "080105.828000", "080105.765000", "080105.828000", "080105.765000", "080105.828000", "080105.765000", "080105.843000", "080105.765000", "080105.843000", "080105.765000", "080105.843000", "080105.765000", "080105.843000", "080105.765000", "080105.843000", "080105.765000", "080105.843000", "080105.765000", "080105.843000", "080105.781000", "080105.843000", "080105.781000", "080105.843000", "080105.781000", "080105.859000", "080105.781000", "080105.859000", "080105.781000", "080105.859000", "080105.781000", "080105.859000", "080105.781000", "080105.859000", "080105.781000", "080105.859000", "080105.781000", "080105.859000", "080105.796000"], "CsaImage.GSWDDataType": ["predicted", "predicted", "predicted", "predicted", "predicted", "predicted", "predicted", "predicted", "predicted", "predicted", "predicted", "predicted", "predicted", "predicted", "predicted", "predicted", "predicted", "predicted", "predicted", "predicted", "predicted", "predicted", "predicted", "predicted", "predicted", "predicted", "predicted", "predicted", "predicted", "predicted", "predicted", "predicted", "measured", "predicted", "measured", "predicted", "measured", "predicted", "measured", "predicted", "measured", "predicted", "measured", "predicted", "measured", "predicted", "measured", "predicted", "measured", "predicted", "measured", "predicted", "measured", "predicted", "measured", "predicted", "measured", "predicted", "measured", "predicted", "measured", "predicted", "measured", "predicted", "measured", "predicted", "measured", "predicted"], "CsaImage.ICE_Dims": ["X_2_1_1_1_1_1_35_1_1_1_1_108", "X_2_1_1_1_1_1_1_1_1_2_1_108", "X_2_1_1_1_1_1_36_1_1_3_1_108", "X_2_1_1_1_1_1_2_1_1_4_1_108", "X_2_1_1_1_1_1_37_1_1_5_1_108", "X_2_1_1_1_1_1_3_1_1_6_1_108", "X_2_1_1_1_1_1_38_1_1_7_1_108", "X_2_1_1_1_1_1_4_1_1_8_1_108", "X_2_1_1_1_1_1_39_1_1_9_1_108", "X_2_1_1_1_1_1_5_1_1_10_1_108", "X_2_1_1_1_1_1_40_1_1_11_1_108", "X_2_1_1_1_1_1_6_1_1_12_1_108", "X_2_1_1_1_1_1_41_1_1_13_1_108", "X_2_1_1_1_1_1_7_1_1_14_1_108", "X_2_1_1_1_1_1_42_1_1_15_1_108", "X_2_1_1_1_1_1_8_1_1_16_1_108", "X_2_1_1_1_1_1_43_1_1_17_1_108", "X_2_1_1_1_1_1_9_1_1_18_1_108", "X_2_1_1_1_1_1_44_1_1_19_1_108", "X_2_1_1_1_1_1_10_1_1_20_1_108", "X_2_1_1_1_1_1_45_1_1_21_1_108", "X_2_1_1_1_1_1_11_1_1_22_1_108", "X_2_1_1_1_1_1_46_1_1_23_1_108", "X_2_1_1_1_1_1_12_1_1_24_1_108", "X_2_1_1_1_1_1_47_1_1_25_1_108", "X_2_1_1_1_1_1_13_1_1_26_1_108", "X_2_1_1_1_1_1_48_1_1_27_1_108", "X_2_1_1_1_1_1_14_1_1_28_1_108", "X_2_1_1_1_1_1_49_1_1_29_1_108", "X_2_1_1_1_1_1_15_1_1_30_1_108", "X_2_1_1_1_1_1_50_1_1_31_1_108", "X_2_1_1_1_1_1_16_1_1_32_1_108", "X_2_1_1_1_1_1_51_1_1_33_1_108", "X_2_1_1_1_1_1_17_1_1_34_1_108", "X_2_1_1_1_1_1_52_1_1_35_1_108", "X_2_1_1_1_1_1_18_1_1_36_1_108", "X_2_1_1_1_1_1_53_1_1_37_1_108", "X_2_1_1_1_1_1_19_1_1_38_1_108", "X_2_1_1_1_1_1_54_1_1_39_1_108", "X_2_1_1_1_1_1_20_1_1_40_1_108", "X_2_1_1_1_1_1_55_1_1_41_1_108", "X_2_1_1_1_1_1_21_1_1_42_1_108", "X_2_1_1_1_1_1_56_1_1_43_1_108", "X_2_1_1_1_1_1_22_1_1_44_1_108", "X_2_1_1_1_1_1_57_1_1_45_1_108", "X_2_1_1_1_1_1_23_1_1_46_1_108", "X_2_1_1_1_1_1_58_1_1_47_1_108", "X_2_1_1_1_1_1_24_1_1_48_1_108", "X_2_1_1_1_1_1_59_1_1_49_1_108", "X_2_1_1_1_1_1_25_1_1_50_1_108", "X_2_1_1_1_1_1_60_1_1_51_1_108", "X_2_1_1_1_1_1_26_1_1_52_1_108", "X_2_1_1_1_1_1_61_1_1_53_1_108", "X_2_1_1_1_1_1_27_1_1_54_1_108", "X_2_1_1_1_1_1_62_1_1_55_1_108", "X_2_1_1_1_1_1_28_1_1_56_1_108", "X_2_1_1_1_1_1_63_1_1_57_1_108", "X_2_1_1_1_1_1_29_1_1_58_1_108", "X_2_1_1_1_1_1_64_1_1_59_1_108", "X_2_1_1_1_1_1_30_1_1_60_1_108", "X_2_1_1_1_1_1_65_1_1_61_1_108", "X_2_1_1_1_1_1_31_1_1_62_1_108", "X_2_1_1_1_1_1_66_1_1_63_1_108", "X_2_1_1_1_1_1_32_1_1_64_1_108", "X_2_1_1_1_1_1_67_1_1_65_1_108", "X_2_1_1_1_1_1_33_1_1_66_1_108", "X_2_1_1_1_1_1_68_1_1_67_1_108", "X_2_1_1_1_1_1_34_1_1_68_1_108"], "CsaImage.ProtocolSliceNumber": [0, 1, 2, 3, 4, 5, 6, 7, 8, 9, 10, 11, 12, 13, 14, 15, 16, 17, 18, 19, 20, 21, 22, 23, 24, 25, 26, 27, 28, 29, 30, 31, 32, 33, 34, 35, 36, 37, 38, 39, 40, 41, 42, 43, 44, 45, 46, 47, 48, 49, 50, 51, 52, 53, 54, 55, 56, 57, 58, 59, 60, 61, 62, 63, 64, 65, 66, 67], "CsaImage.RFSWDDataType": ["predicted", "predicted", "predicted", "predicted", "predicted", "predicted", "predicted", "predicted", "predicted", "predicted", "predicted", "predicted", "predicted", "predicted", "predicted", "predicted", "predicted", "predicted", "predicted", "predicted", "predicted", "predicted", "predicted", "predicted", "predicted", "predicted", "predicted", "predicted", "predicted", "predicted", "measured", "predicted", "measured", "predicted", "measured", "predicted", "measured", "predicted", "measured", "predicted", "measured", "predicted", "measured", "predicted", "measured", "predicted", "measured", "predicted", "measured", "predicted", "measured", "predicted", "measured", "predicted", "measured", "predicted", "measured", "predicted", "measured", "predicted", "measured", "predicted", "measured", "predicted", "measured", "predicted", "measured", "predicted"], "CsaImage.SlicePosition_PCS": [[-116.59314259, -124.40590192, 20.96280773], [-116.70201375, -123.06522085, 22.95044811], [-116.81088491, -121.72453786, 24.9380923], [-116.91975607, -120.38385679, 26.92573268], [-117.02862723, -119.04317571, 28.91337497], [-117.13749846, -117.70249463, 30.90101726], [-117.24636956, -116.36181356, 32.88865764], [-117.35524078, -115.02113057, 34.87629993], [-117.464112, -113.6804495, 36.86394222], [-117.5729831, -112.33976842, 38.85158451], [-117.68185432, -110.99908735, 40.8392268], [-117.79072543, -109.65840627, 42.82686718], [-117.89959665, -108.31772424, 44.81451042], [-118.00846787, -106.97704316, 46.80215175], [-118.11733909, -105.63636209, 48.78979404], [-118.22621007, -104.29568006, 50.77743538], [-118.3350813, -102.95499898, 52.76507766], [-118.44395252, -101.61431743, 54.75271947], [-118.55282374, -100.27363588, 56.74036152], [-118.66169472, -98.93295456, 58.72800351], [-118.77056594, -97.59227317, 60.71564539], [-118.87943717, -96.25159181, 62.70328744], [-118.98830839, -94.91091038, 64.69092949], [-119.09717961, -93.57022907, 66.6785713], [-119.20605059, -92.22954751, 68.66621311], [-119.31492181, -90.88886596, 70.6538554], [-119.42379304, -89.54818488, 72.64149673], [-119.53266426, -88.20750333, 74.62913902], [-119.64153548, -86.86682226, 76.61678035], [-119.75040646, -85.52614023, 78.60442264], [-119.85927768, -84.18545915, 80.59206493], [-119.9681489, -82.84477807, 82.57970722], [-120.07701989, -81.50409604, 84.56734951], [-120.18589135, -80.16341497, 86.55498989], [-120.29476233, -78.82273389, 88.54263218], [-120.40363379, -77.48205282, 90.53027446], [-120.51250477, -76.14136983, 92.51791484], [-120.62137576, -74.80068876, 94.50555904], [-120.73024722, -73.46000768, 96.49319942], [-120.8391182, -72.1193266, 98.48084362], [-120.94798966, -70.77864553, 100.468484], [-121.05686064, -69.43796445, 102.45612438], [-121.16573163, -68.09728147, 104.44376857], [-121.27460309, -66.75660039, 106.43140895], [-121.38347407, -65.41591932, 108.41905315], [-121.49234553, -64.07523633, 110.40669353], [-121.60121651, -62.73455716, 112.39433391], [-121.7100875, -61.39387418, 114.38197811], [-121.81895896, -60.05319501, 116.36961849], [-121.92782994, -58.71251203, 118.35726268], [-122.03670092, -57.37182905, 120.34490306], [-122.14557238, -56.03114988, 122.33254345], [-122.25444336, -54.69046689, 124.32018383], [-122.36331482, -53.34978772, 126.30783184], [-122.47218581, -52.00910474, 128.29547222], [-122.58105679, -50.66842557, 130.2831126], [-122.68992825, -49.32774259, 132.27075298], [-122.79879923, -47.98705961, 134.25839336], [-122.90767069, -46.64638044, 136.24604137], [-123.01654168, -45.30569745, 138.23368175], [-123.12541266, -43.96501828, 140.22132213], [-123.23428412, -42.6243353, 142.20896251], [-123.3431551, -41.28365232, 144.19660289], [-123.45202656, -39.94297315, 146.1842509], [-123.56089755, -38.60229017, 148.17189128], [-123.66976853, -37.261611, 150.15953167], [-123.77863999, -35.92092801, 152.14717205], [-123.88751097, -34.58024885, 154.13481243]], "CsaImage.TimeAfterStart": [1.0975, 0.7325, 1.1075, 0.7425, 1.12, 0.755, 1.13, 0.765, 1.14, 0.775, 1.1525, 0.785, 1.1625, 0.7975, 1.1725, 0.8075, 1.185, 0.8175, 1.195, 0.83, 1.205, 0.84, 1.215, 0.85, 1.2275, 0.8625, 1.2375, 0.8725, 1.2475, 0.8825, 1.26, 0.8925, 1.27, 0.905, 1.28, 0.915, 1.2925, 0.925, 1.3025, 0.9375, 1.3125, 0.9475, 1.3225, 0.9575, 1.335, 0.97, 1.345, 0.98, 1.355, 0.99, 1.3675, 1.0, 1.3775, 1.0125, 1.3875, 1.0225, 1.4, 1.0325, 1.41, 1.045, 1.42, 1.055, 1.43, 1.065, 1.4425, 1.0775, 1.4525, 1.0875], "ImagePositionPatient": [[-116.59314258624, -124.40590192146, 20.962807727702], [-116.70201374817, -123.06522084541, 22.950448108561], [-116.81088491011, -121.72453786202, 24.938092304118], [-116.91975607205, -120.38385678597, 26.925732684977], [-117.02862723399, -119.04317570992, 28.913374973185], [-117.13749845553, -117.70249463387, 30.901017261393], [-117.24636955786, -116.36181355782, 32.888657642253], [-117.3552407794, -115.02113057442, 34.876299930461], [-117.46411200095, -113.68044949837, 36.863942218669], [-117.57298310328, -112.33976842232, 38.851584506877], [-117.68185432482, -110.99908734627, 40.839226795085], [-117.79072542716, -109.65840627022, 42.826867175944], [-117.8995966487, -108.31772424049, 44.814510417826], [-118.00846787024, -106.97704316444, 46.80215175236], [-118.11733909178, -105.63636208839, 48.789794040568], [-118.22621007491, -104.29568005867, 50.777435375102], [-118.33508129645, -102.95499898262, 52.76507766331], [-118.44395251799, -101.61431742973, 54.752719474681], [-118.55282373953, -100.27363587685, 56.74036152447], [-118.66169472266, -98.932954562378, 58.728003514655], [-118.7705659442, -97.592273173404, 60.71564538563], [-118.87943716574, -96.251591814232, 62.70328743542], [-118.98830838728, -94.910910380555, 64.690929485209], [-119.09717960883, -93.570229066086, 66.67857129658], [-119.20605059195, -92.229547513199, 68.666213107951], [-119.31492181349, -90.888865960312, 70.653855396159], [-119.42379303504, -89.548184884262, 72.641496730693], [-119.53266425658, -88.207503331376, 74.629139018901], [-119.64153547812, -86.866822255326, 76.616780353434], [-119.75040646124, -85.526140225602, 78.604422641642], [-119.85927768279, -84.185459149552, 80.59206492985], [-119.96814890433, -82.844778073502, 82.579707218058], [-120.07701988745, -81.504096043778, 84.567349506266], [-120.18589134741, -80.163414967728, 86.554989887126], [-120.29476233054, -78.822733891678, 88.542632175334], [-120.4036337905, -77.482052815628, 90.530274463542], [-120.51250477362, -76.14136983223, 92.517914844401], [-120.62137575675, -74.80068875618, 94.505559039958], [-120.73024721671, -73.46000768013, 96.493199420817], [-120.83911819983, -72.119326604081, 98.480843616374], [-120.94798965979, -70.778645528031, 100.46848399723], [-121.05686064291, -69.437964451981, 102.45612437809], [-121.16573162604, -68.097281468583, 104.44376857365], [-121.274603086, -66.756600392533, 106.43140895451], [-121.38347406912, -65.415919316483, 108.41905315007], [-121.49234552908, -64.075236333085, 110.40669353092], [-121.60121651221, -62.734557164383, 112.39433391178], [-121.71008749533, -61.393874180985, 114.38197810734], [-121.81895895529, -60.053195012284, 116.3696184882], [-121.92782993842, -58.712512028885, 118.35726268376], [-122.03670092154, -57.371829045487, 120.34490306462], [-122.1455723815, -56.031149876786, 122.33254344548], [-122.25444336463, -54.690466893387, 124.32018382633], [-122.36331482459, -53.349787724686, 126.30783183659], [-122.47218580771, -52.009104741288, 128.29547221745], [-122.58105679083, -50.668425572586, 130.28311259831], [-122.68992825079, -49.327742589188, 132.27075297917], [-122.79879923392, -47.98705960579, 134.25839336003], [-122.90767069388, -46.646380437088, 136.24604137028], [-123.016541677, -45.30569745369, 138.23368175114], [-123.12541266013, -43.965018284989, 140.221322132], [-123.23428412009, -42.62433530159, 142.20896251286], [-123.34315510321, -41.283652318192, 144.19660289372], [-123.45202656317, -39.942973149491, 146.18425090397], [-123.5608975463, -38.602290166092, 148.17189128483], [-123.66976852942, -37.261610997391, 150.15953166569], [-123.77863998938, -35.920928013993, 152.14717204655], [-123.8875109725, -34.580248845292, 154.13481242741]], "InstanceCreationTime": ["080105.796000", "080105.718000", "080105.796000", "080105.718000", "080105.796000", "080105.734000", "080105.796000", "080105.734000", "080105.796000", "080105.734000", "080105.796000", "080105.734000", "080105.796000", "080105.734000", "080105.796000", "080105.750000", "080105.812000", "080105.750000", "080105.812000", "080105.750000", "080105.812000", "080105.750000", "080105.812000", "080105.750000", "080105.812000", "080105.750000", "080105.828000", "080105.750000", "080105.828000", "080105.750000", "080105.828000", "080105.765000", "080105.828000", "080105.765000", "080105.828000", "080105.765000", "080105.843000", "080105.765000", "080105.843000", "080105.765000", "080105.843000", "080105.765000", "080105.843000", "080105.765000", "080105.843000", "080105.765000", "080105.843000", "080105.765000", "080105.843000", "080105.781000", "080105.843000", "080105.781000", "080105.843000", "080105.781000", "080105.859000", "080105.781000", "080105.859000", "080105.781000", "080105.859000", "080105.781000", "080105.859000", "080105.781000", "080105.859000", "080105.781000", "080105.859000", "080105.781000", "080105.859000", "080105.796000"], "InstanceNumber": [1, 2, 3, 4, 5, 6, 7, 8, 9, 10, 11, 12, 13, 14, 15, 16, 17, 18, 19, 20, 21, 22, 23, 24, 25, 26, 27, 28, 29, 30, 31, 32, 33, 34, 35, 36, 37, 38, 39, 40, 41, 42, 43, 44, 45, 46, 47, 48, 49, 50, 51, 52, 53, 54, 55, 56, 57, 58, 59, 60, 61, 62, 63, 64, 65, 66, 67, 68], "LargestImagePixelValue": [4094, 4094, 4094, 4093, 4094, 4092, 4092, 4094, 4093, 4094, 4093, 4093, 4094, 4093, 4094, 4094, 4094, 4094, 4092, 4091, 4094, 4092, 4094, 4094, 4094, 4094, 4094, 4094, 4094, 4091, 4094, 4092, 4094, 4094, 4092, 4094, 4094, 4092, 4092, 4094, 4093, 4093, 4094, 4094, 4093, 4094, 4089, 4092, 4093, 4093, 4087, 4088, 4091, 4094, 4092, 4094, 4094, 4093, 4094, 4094, 4093, 4094, 4093, 4093, 4093, 4094, 4093, 4094], "SliceLocation": [-46.845202306099, -44.445203772515, -42.045201014182, -39.645202480599, -37.24520236738, -34.845202251457, -32.445203720577, -30.045202539176, -27.645202423253, -25.245202312738, -22.845202196815, -20.445203665935, -18.045202227455, -15.64520290135, -13.245202785427, -10.845202937399, -8.4452028214755, -6.0452028340919, -3.6452026492539, -1.2452026577796, 1.1547972874031, 3.5547973640286, 5.9547974822743, 8.3547973364731, 10.754797313041, 13.154797695334, 15.554797021439, 17.954797403731, 20.354796729837, 22.754797367683, 25.154797483606, 27.554797599529, 29.954798237376, 32.354796784478, 34.754796889586, 37.154797016325, 39.554796607274, 41.954798292018, 44.35479683912, 46.754798523864, 49.154797070967, 51.554795596438, 53.95479834666, 56.354796893762, 58.754798578506, 61.154798191086, 63.55479565108, 65.954798401302, 68.354795882926, 70.754798633148, 73.154798224097, 75.554795705722, 77.954795296672, 80.35479909684, 82.75479868779, 85.154796147784, 87.554795760364, 89.954795351314, 92.354799151482, 94.754798742432, 97.154796202426, 99.554795815006, 101.95479540596, 104.35479920612, 106.75479879707, 109.15479625707, 111.55479586965, 113.95479332964], "SmallestImagePixelValue": [0, 1, 0, 3, 0, 0, 0, 0, 0, 0, 0, 1, 0, 0, 1, 5, 0, 0, 6, 1, 7, 0, 0, 0, 5, 2, 1, 2, 0, 1, 0, 0, 0, 1, 1, 3, 0, 1, 2, 0, 2, 0, 3, 5, 0, 1, 0, 3, 0, 1, 1, 0, 1, 3, 2, 1, 0, 0, 0, 2, 0, 2, 0, 0, 0, 0, 0, 0], "WindowCenter": [-580.0, -522.0, -524.0, -480.0, -524.0, -528.0, -558.0, -588.0, -478.0, -424.0, -474.0, -500.0, -518.0, -614.0, -628.0, -562.0, -512.0, -542.0, -514.0, -504.0, -464.0, -416.0, -418.0, -416.0, -412.0, -404.0, -392.0, -378.0, -374.0, -400.0, -342.0, -296.0, -298.0, -270.0, -302.0, -288.0, -346.0, -344.0, -296.0, -220.0, -152.0, -160.0, -134.0, -182.0, -160.0, -194.0, -188.0, -216.0, -226.0, -242.0, -222.0, -248.0, -234.0, -280.0, -314.0, -294.0, -308.0, -310.0, -334.0, -318.0, -308.0, -380.0, -382.0, -380.0, -356.0, -380.0, -444.0, -422.0], "WindowWidth": [4988.0, 5056.0, 5094.0, 5140.0, 5048.0, 4970.0, 4820.0, 4858.0, 4898.0, 4894.0, 4812.0, 4830.0, 4740.0, 4684.0, 4520.0, 4500.0, 4436.0, 4426.0, 4336.0, 4266.0, 4182.0, 4180.0, 4102.0, 4034.0, 3914.0, 3864.0, 3776.0, 3758.0, 3640.0, 3632.0, 3594.0, 3628.0, 3624.0, 3704.0, 3678.0, 3708.0, 3636.0, 3652.0, 3654.0, 3724.0, 3844.0, 3826.0, 3880.0, 3904.0, 3908.0, 3910.0, 3890.0, 3918.0, 3916.0, 3982.0, 3982.0, 3976.0, 4034.0, 4034.0, 4070.0, 4082.0, 4084.0, 4084.0, 4204.0, 4306.0, 4402.0, 4480.0, 4536.0, 4674.0, 4780.0, 4796.0, 4826.0, 4912.0]}}}