{"AcquisitionMatrixPE": 96, "AcquisitionNumber": 1, "AcquisitionTime": "07:47:16.202500", "BaseResolution": 96, "BodyPartExamined": "BRAIN", "ConsistencyInfo": "N4_VD11D_LATEST_20110129", "ConversionSoftware": "dcm2niix", "ConversionSoftwareVersion": "v1.0.20210317", "DeviceSerialNumber": "45239", "DwellTime": 9.2e-06, "EchoNumber": 2, "EchoTime": 0.00738, "EchoTime1": 0.00492, "EchoTime2": 0.00738, "FlipAngle": 50, "ImageOrientationPatientDICOM": [0.999404, 0.0298275, -0.01736, -0.0345116, 0.86376, -0.50272], "ImageType": ["ORIGINAL", "PRIMARY", "P", "ND", "PHASE"], "ImagingFrequency": 123.193, "InPlanePhaseEncodingDirectionDICOM": "COL", "InstitutionAddress": "E 24th St. 100,Austin,Southmiddle,US,78712", "InstitutionName": "Univ of Texas at Austin", "InstitutionalDepartmentName": "IRC", "MRAcquisitionType": "2D", "MagneticFieldStrength": 3, "Manufacturer": "Siemens", "ManufacturersModelName": "Skyra", "Modality": "MR", "PartialFourier": 1, "PatientPosition": "HFS", "PercentPhaseFOV": 100, "PercentSampling": 100, "PhaseEncodingDirection": "j-", "PhaseEncodingSteps": 96, "PhaseResolution": 1, "PixelBandwidth": 565, "ProcedureStepDescription": "Poldrack2^self-scanning", "ProtocolName": "gre_field_mapping", "PulseSequenceDetails": "%SiemensSeq%\\gre_field_mapping", "ReceiveCoilActiveElements": "HEA;HEP", "ReceiveCoilName": "Head_32", "ReconMatrixPE": 96, "RepetitionTime": 0.731, "SAR": 0.124104, "ScanningSequence": "GR", "SequenceName": "*fm2d2r", "SequenceVariant": "SP", "SeriesDescription": "gre_field_mapping", "SeriesNumber": 11, "ShimSetting": [-2779, 8008, -15430, 154, -171, -53, 210, -44], "SliceThickness": 2, "SliceTiming": [0.36719, 0, 0.375, 0.00781, 0.39062, 0.02344, 0.39844, 0.03125, 0.40625, 0.04688, 0.42188, 0.05469, 0.42969, 0.07031, 0.44531, 0.07812, 0.45312, 0.08594, 0.46094, 0.10156, 0.47656, 0.10938, 0.48438, 0.11719, 0.5, 0.13281, 0.50781, 0.14062, 0.51562, 0.14844, 0.53125, 0.16406, 0.53906, 0.17188, 0.54688, 0.1875, 0.5625, 0.19531, 0.57031, 0.20312, 0.57812, 0.21875, 0.59375, 0.22656, 0.60156, 0.24219, 0.61719, 0.25, 0.625, 0.25781, 0.63281, 0.26562, 0.64844, 0.28125, 0.65625, 0.28906, 0.67188, 0.30469, 0.67969, 0.3125, 0.6875, 0.32031, 0.69531, 0.33594, 0.71094, 0.34375, 0.71875, 0.35938], "SoftwareVersions": "syngo MR D11", "SpacingBetweenSlices": 2.4, "StationName": "AWP45239", "TxRefAmp": 346.147, "dcmmeta_affine": [[-2.3944060802459717, -0.08268392831087112, 0.0, 122.85432434082031], [-0.07146163284778595, 2.069424867630005, -1.2072486877441406, -67.89374542236328], [-0.041591666638851166, 1.2044339179992676, 2.0742568969726562, -71.71926879882812], [0.0, 0.0, 0.0, 1.0]], "dcmmeta_reorient_transform": [[0.0, -1.0, 0.0, 95.0], [1.0, 0.0, 0.0, 0.0], [0.0, 0.0, -1.0, 67.0], [0.0, 0.0, 0.0, 1.0]], "dcmmeta_shape": [96, 96, 68], "dcmmeta_slice_dim": 2, "dcmmeta_version": 0.6, "global": {"const": {"AcquisitionMatrix": [96, 0, 0, 96], "AcquisitionNumber": 1, "AngioFlag": "N", "BitsAllocated": 16, "BitsStored": 12, "BodyPartExamined": "BRAIN", "Columns": 96, "EchoNumbers": 2, "EchoTime": 7.38, "EchoTrainLength": 0, "FlipAngle": 50.0, "HighBit": 11, "ImageOrientationPatient": [0.99940429892109, 0.02982746503206, -0.0173600008009, -0.0345115531097, 0.86375996411248, -0.5027202771904], "ImageType": ["ORIGINAL", "PRIMARY", "P", "ND"], "ImagedNucleus": "1H", "ImagingFrequency": 123.193276, "InPlanePhaseEncodingDirection": "COL", "MRAcquisitionType": "2D", "MagneticFieldStrength": 3.0, "Manufacturer": "SIEMENS", "ManufacturerModelName": "Skyra", "Modality": "MR", "NumberOfAverages": 1.0, "NumberOfPhaseEncodingSteps": 96, "PercentPhaseFieldOfView": 100.0, "PercentSampling": 100.0, "PerformedProcedureStepStartTime": "071410.218000", "PhotometricInterpretation": "MONOCHROME2", "PixelBandwidth": 565.0, "PixelRepresentation": 0, "PixelSpacing": [2.3958332538605, 2.3958332538605], "ProtocolName": "gre_field_mapping", "RepetitionTime": 731.0, "RescaleIntercept": -4096.0, "RescaleSlope": 2.0, "RescaleType": "US", "Rows": 96, "SAR": 0.12410439679235, "SamplesPerPixel": 1, "ScanningSequence": "GR", "SequenceName": "*fm2d2r", "SequenceVariant": "SP", "SeriesDescription": "gre_field_mapping", "SeriesNumber": 11, "SeriesTime": "075354.765000", "SliceThickness": 2.0, "SoftwareVersions": "syngo MR D11", "SpacingBetweenSlices": 2.4, "SpecificCharacterSet": "ISO_IR 100", "StudyID": "1", "StudyTime": "071410.187000", "TransmitCoilName": "Body", "VariableFlipAngleFlag": "N", "WindowCenterWidthExplanation": "Algo1", "dBdt": 0.0}, "slices": {"AcquisitionTime": ["074716.202500", "074715.837500", "074716.212500", "074715.847500", "074716.225000", "074715.860000", "074716.235000", "074715.870000", "074716.245000", "074715.880000", "074716.257500", "074715.890000", "074716.267500", "074715.902500", "074716.277500", "074715.912500", "074716.290000", "074715.922500", "074716.300000", "074715.935000", "074716.310000", "074715.945000", "074716.320000", "074715.955000", "074716.332500", "074715.967500", "074716.342500", "074715.977500", "074716.352500", "074715.987500", "074716.365000", "074715.997500", "074716.375000", "074716.010000", "074716.385000", "074716.020000", "074716.397500", "074716.030000", "074716.407500", "074716.042500", "074716.417500", "074716.052500", "074716.427500", "074716.062500", "074716.440000", "074716.075000", "074716.450000", "074716.085000", "074716.460000", "074716.095000", "074716.472500", "074716.105000", "074716.482500", "074716.117500", "074716.492500", "074716.127500", "074716.505000", "074716.137500", "074716.515000", "074716.150000", "074716.525000", "074716.160000", "074716.535000", "074716.170000", "074716.547500", "074716.182500", "074716.557500", "074716.192500"], "ContentTime": ["075354.859000", "075354.781000", "075354.859000", "075354.781000", "075354.859000", "075354.781000", "075356.093000", "075354.781000", "075356.093000", "075354.781000", "075356.093000", "075354.796000", "075356.093000", "075354.796000", "075356.093000", "075354.796000", "075356.093000", "075354.796000", "075356.093000", "075354.796000", "075356.093000", "075354.796000", "075356.109000", "075354.796000", "075356.109000", "075354.796000", "075356.109000", "075354.812000", "075356.109000", "075354.812000", "075356.109000", "075354.812000", "075356.109000", "075354.812000", "075356.109000", "075354.812000", "075356.109000", "075354.812000", "075356.125000", "075354.828000", "075356.125000", "075354.828000", "075356.125000", "075354.828000", "075356.125000", "075354.828000", "075356.125000", "075354.828000", "075356.125000", "075354.828000", "075356.125000", "075354.828000", "075356.125000", "075354.828000", "075356.140000", "075354.843000", "075356.140000", "075354.843000", "075356.140000", "075354.843000", "075356.140000", "075354.843000", "075356.140000", "075354.843000", "075356.156000", "075354.843000", "075356.156000", "075354.843000"], "CsaImage.ICE_Dims": ["X_2_1_1_1_1_1_35_1_1_1_1_66", "X_2_1_1_1_1_1_1_1_1_2_1_66", "X_2_1_1_1_1_1_36_1_1_3_1_66", "X_2_1_1_1_1_1_2_1_1_4_1_66", "X_2_1_1_1_1_1_37_1_1_5_1_66", "X_2_1_1_1_1_1_3_1_1_6_1_66", "X_2_1_1_1_1_1_38_1_1_7_1_66", "X_2_1_1_1_1_1_4_1_1_8_1_66", "X_2_1_1_1_1_1_39_1_1_9_1_66", "X_2_1_1_1_1_1_5_1_1_10_1_66", "X_2_1_1_1_1_1_40_1_1_11_1_66", "X_2_1_1_1_1_1_6_1_1_12_1_66", "X_2_1_1_1_1_1_41_1_1_13_1_66", "X_2_1_1_1_1_1_7_1_1_14_1_66", "X_2_1_1_1_1_1_42_1_1_15_1_66", "X_2_1_1_1_1_1_8_1_1_16_1_66", "X_2_1_1_1_1_1_43_1_1_17_1_66", "X_2_1_1_1_1_1_9_1_1_18_1_66", "X_2_1_1_1_1_1_44_1_1_19_1_66", "X_2_1_1_1_1_1_10_1_1_20_1_66", "X_2_1_1_1_1_1_45_1_1_21_1_66", "X_2_1_1_1_1_1_11_1_1_22_1_66", "X_2_1_1_1_1_1_46_1_1_23_1_66", "X_2_1_1_1_1_1_12_1_1_24_1_66", "X_2_1_1_1_1_1_47_1_1_25_1_66", "X_2_1_1_1_1_1_13_1_1_26_1_66", "X_2_1_1_1_1_1_48_1_1_27_1_66", "X_2_1_1_1_1_1_14_1_1_28_1_66", "X_2_1_1_1_1_1_49_1_1_29_1_66", "X_2_1_1_1_1_1_15_1_1_30_1_66", "X_2_1_1_1_1_1_50_1_1_31_1_66", "X_2_1_1_1_1_1_16_1_1_32_1_66", "X_2_1_1_1_1_1_51_1_1_33_1_66", "X_2_1_1_1_1_1_17_1_1_34_1_66", "X_2_1_1_1_1_1_52_1_1_35_1_66", "X_2_1_1_1_1_1_18_1_1_36_1_66", "X_2_1_1_1_1_1_53_1_1_37_1_66", "X_2_1_1_1_1_1_19_1_1_38_1_66", "X_2_1_1_1_1_1_54_1_1_39_1_66", "X_2_1_1_1_1_1_20_1_1_40_1_66", "X_2_1_1_1_1_1_55_1_1_41_1_66", "X_2_1_1_1_1_1_21_1_1_42_1_66", "X_2_1_1_1_1_1_56_1_1_43_1_66", "X_2_1_1_1_1_1_22_1_1_44_1_66", "X_2_1_1_1_1_1_57_1_1_45_1_66", "X_2_1_1_1_1_1_23_1_1_46_1_66", "X_2_1_1_1_1_1_58_1_1_47_1_66", "X_2_1_1_1_1_1_24_1_1_48_1_66", "X_2_1_1_1_1_1_59_1_1_49_1_66", "X_2_1_1_1_1_1_25_1_1_50_1_66", "X_2_1_1_1_1_1_60_1_1_51_1_66", "X_2_1_1_1_1_1_26_1_1_52_1_66", "X_2_1_1_1_1_1_61_1_1_53_1_66", "X_2_1_1_1_1_1_27_1_1_54_1_66", "X_2_1_1_1_1_1_62_1_1_55_1_66", "X_2_1_1_1_1_1_28_1_1_56_1_66", "X_2_1_1_1_1_1_63_1_1_57_1_66", "X_2_1_1_1_1_1_29_1_1_58_1_66", "X_2_1_1_1_1_1_64_1_1_59_1_66", "X_2_1_1_1_1_1_30_1_1_60_1_66", "X_2_1_1_1_1_1_65_1_1_61_1_66", "X_2_1_1_1_1_1_31_1_1_62_1_66", "X_2_1_1_1_1_1_66_1_1_63_1_66", "X_2_1_1_1_1_1_32_1_1_64_1_66", "X_2_1_1_1_1_1_67_1_1_65_1_66", "X_2_1_1_1_1_1_33_1_1_66_1_66", "X_2_1_1_1_1_1_68_1_1_67_1_66", "X_2_1_1_1_1_1_34_1_1_68_1_66"], "CsaImage.ProtocolSliceNumber": [0, 1, 2, 3, 4, 5, 6, 7, 8, 9, 10, 11, 12, 13, 14, 15, 16, 17, 18, 19, 20, 21, 22, 23, 24, 25, 26, 27, 28, 29, 30, 31, 32, 33, 34, 35, 36, 37, 38, 39, 40, 41, 42, 43, 44, 45, 46, 47, 48, 49, 50, 51, 52, 53, 54, 55, 56, 57, 58, 59, 60, 61, 62, 63, 64, 65, 66, 67], "CsaImage.SlicePosition_PCS": [[-114.99935042, -128.70155775, 42.70178522], [-114.99935042, -127.49430906, 44.77604403], [-114.99935042, -126.28706228, 46.85030378], [-114.99935042, -125.07981359, 48.92456259], [-114.99935042, -123.87256681, 50.99882235], [-114.99935042, -122.66531812, 53.0730821], [-114.99935042, -121.45807134, 55.14734139], [-114.99935042, -120.25082266, 57.22160091], [-114.99935042, -119.04357397, 59.29586054], [-114.99935042, -117.83632719, 61.37012006], [-114.99935042, -116.6290785, 63.4443797], [-114.99935042, -115.42183077, 65.51863922], [-114.99935042, -114.21458303, 67.5928985], [-114.99935042, -113.0073353, 69.66715826], [-114.99935042, -111.80008756, 71.74141802], [-114.99935042, -110.59283983, 73.81567682], [-114.99935042, -109.38559162, 75.88993754], [-114.99935042, -108.17834388, 77.96419634], [-114.99935042, -106.97109615, 80.03845514], [-114.99935042, -105.76384818, 82.11271586], [-114.99935042, -104.55660021, 84.18697466], [-114.99935042, -103.34935235, 86.26123346], [-114.99935042, -102.1421045, 88.33549418], [-114.99935042, -100.93485665, 90.40975298], [-114.99935042, -99.72760879, 92.48401178], [-114.99935042, -98.52036106, 94.5582725], [-114.99935042, -97.31311285, 96.63253321], [-114.99935042, -96.10586511, 98.7067901], [-114.99935042, -94.89861738, 100.78105082], [-114.99935042, -93.69136965, 102.85531153], [-114.99935042, -92.48412191, 104.92956842], [-114.99935042, -91.27687322, 107.00382914], [-114.99935042, -90.06962549, 109.07808985], [-114.99935042, -88.86237776, 111.15235056], [-114.99935042, -87.65513002, 113.22660746], [-114.99935042, -86.44788229, 115.30086817], [-114.99935042, -85.2406336, 117.37512888], [-114.99935042, -84.03338682, 119.44938578], [-114.99935042, -82.82613813, 121.52364649], [-114.99935042, -81.61889135, 123.5979072], [-114.99935042, -80.41164266, 125.67216791], [-114.99935042, -79.20439588, 127.74642481], [-114.99935042, -77.9971472, 129.82068171], [-114.99935042, -76.78989851, 131.89494623], [-114.99935042, -75.58265173, 133.96920313], [-114.99935042, -74.37540304, 136.04346003], [-114.99935042, -73.16815626, 138.11772455], [-114.99935042, -71.96090757, 140.19198145], [-114.99935042, -70.75365888, 142.26623835], [-114.99935042, -69.5464102, 144.34050287], [-114.99935042, -68.33916532, 146.41475977], [-114.99935042, -67.13191663, 148.48901667], [-114.99935042, -65.92466795, 150.56328119], [-114.99935042, -64.71741926, 152.63753809], [-114.99935042, -63.51017439, 154.71179499], [-114.99935042, -62.3029257, 156.78605951], [-114.99935042, -61.09567701, 158.86031641], [-114.99935042, -59.88842832, 160.93458094], [-114.99935042, -58.68117964, 163.00883783], [-114.99935042, -57.47393476, 165.08309473], [-114.99935042, -56.26668607, 167.15735926], [-114.99935042, -55.05943739, 169.23161615], [-114.99935042, -53.8521887, 171.30587305], [-114.99935042, -52.64494001, 173.38013758], [-114.99935042, -51.43769514, 175.45439447], [-114.99935042, -50.23044645, 177.52865137], [-114.99935042, -49.02319776, 179.6029159], [-114.99935042, -47.81594908, 181.6771728]], "CsaImage.TimeAfterStart": [1.1, 0.7325, 1.11, 0.745, 1.12, 0.755, 1.13, 0.765, 1.1425, 0.7775, 1.1525, 0.7875, 1.1625, 0.7975, 1.175, 0.8075, 1.185, 0.82, 1.195, 0.83, 1.2075, 0.84, 1.2175, 0.8525, 1.2275, 0.8625, 1.2375, 0.8725, 1.25, 0.885, 1.26, 0.895, 1.27, 0.905, 1.2825, 0.915, 1.2925, 0.9275, 1.3025, 0.9375, 1.315, 0.9475, 1.325, 0.96, 1.335, 0.97, 1.345, 0.98, 1.3575, 0.9925, 1.3675, 1.0025, 1.3775, 1.0125, 1.39, 1.0225, 1.4, 1.035, 1.41, 1.045, 1.4225, 1.055, 1.4325, 1.0675, 1.4425, 1.0775, 1.4525, 1.0875], "ImagePositionPatient": [[-114.99935041532, -128.70155774828, 42.701785221863], [-114.99935041532, -127.49430906053, 44.776044026184], [-114.99935041532, -126.28706228014, 46.85030378418], [-114.99935041532, -125.07981359239, 48.924562588501], [-114.99935041532, -123.872566812, 50.998822346497], [-114.99935041532, -122.66531812425, 53.073082104493], [-114.99935041532, -121.45807134386, 55.147341385651], [-114.99935041532, -120.25082265611, 57.221600905228], [-114.99935041532, -119.04357396837, 59.295860544014], [-114.99935041532, -117.83632718797, 61.370120063591], [-114.99935041532, -116.62907850023, 63.444379702378], [-114.99935041532, -115.42183076616, 65.518639221955], [-114.99935041532, -114.21458303209, 67.592898503113], [-114.99935041532, -113.00733529802, 69.667158261109], [-114.99935041532, -111.80008756395, 71.741418019104], [-114.99935041532, -110.59283982988, 73.815676823426], [-114.99935041532, -109.38559161897, 75.889937535096], [-114.99935041532, -108.1783438849, 77.964196339417], [-114.99935041532, -106.97109615083, 80.038455143738], [-114.99935041532, -105.76384817835, 82.112715855408], [-114.99935041532, -104.55660020586, 84.186974659729], [-114.99935041532, -103.34935235258, 86.261233464051], [-114.99935041532, -102.1421044993, 88.335494175721], [-114.99935041532, -100.93485664602, 90.409752980042], [-114.99935041532, -99.72760879274, 92.484011784363], [-114.99935041532, -98.52036105867, 94.558272496033], [-114.99935041532, -97.313112847763, 96.632533207703], [-114.99935041532, -96.105865113694, 98.706790104676], [-114.99935041532, -94.898617379624, 100.78105081635], [-114.99935041532, -93.691369645554, 102.85531152802], [-114.99935041532, -92.484121911484, 104.92956842499], [-114.99935041532, -91.27687322374, 107.00382913666], [-114.99935041532, -90.06962548967, 109.07808984833], [-114.99935041532, -88.8623777556, 111.15235056], [-114.99935041532, -87.65513002153, 113.22660745697], [-114.99935041532, -86.447882287461, 115.30086816864], [-114.99935041532, -85.240633599716, 117.37512888031], [-114.99935041532, -84.033386819321, 119.44938577728], [-114.99935041532, -82.826138131577, 121.52364648895], [-114.99935041532, -81.618891351181, 123.59790720062], [-114.99935041532, -80.411642663437, 125.67216791229], [-114.99935041532, -79.204395883042, 127.74642480927], [-114.99935041532, -77.997147195298, 129.82068170624], [-114.99935041532, -76.789898507553, 131.89494623261], [-114.99935041532, -75.582651727158, 133.96920312958], [-114.99935041532, -74.375403039414, 136.04346002655], [-114.99935041532, -73.168156259018, 138.11772455292], [-114.99935041532, -71.960907571274, 140.19198144989], [-114.99935041532, -70.75365888353, 142.26623834686], [-114.99935041532, -69.546410195786, 144.34050287323], [-114.99935041532, -68.339165322739, 146.4147597702], [-114.99935041532, -67.131916634995, 148.48901666718], [-114.99935041532, -65.924667947251, 150.56328119354], [-114.99935041532, -64.717419259507, 152.63753809052], [-114.99935041532, -63.51017438646, 154.71179498749], [-114.99935041532, -62.302925698715, 156.78605951386], [-114.99935041532, -61.095677010971, 158.86031641083], [-114.99935041532, -59.888428323227, 160.9345809372], [-114.99935041532, -58.681179635483, 163.00883783417], [-114.99935041532, -57.473934762436, 165.08309473114], [-114.99935041532, -56.266686074692, 167.15735925751], [-114.99935041532, -55.059437386948, 169.23161615448], [-114.99935041532, -53.852188699204, 171.30587305145], [-114.99935041532, -52.64494001146, 173.38013757782], [-114.99935041532, -51.437695138413, 175.45439447479], [-114.99935041532, -50.230446450669, 177.52865137177], [-114.99935041532, -49.023197762924, 179.60291589813], [-114.99935041532, -47.81594907518, 181.67717279511]], "InstanceCreationTime": ["075354.859000", "075354.781000", "075354.859000", "075354.781000", "075354.859000", "075354.781000", "075356.093000", "075354.781000", "075356.093000", "075354.781000", "075356.093000", "075354.796000", "075356.093000", "075354.796000", "075356.093000", "075354.796000", "075356.093000", "075354.796000", "075356.093000", "075354.796000", "075356.093000", "075354.796000", "075356.109000", "075354.796000", "075356.109000", "075354.796000", "075356.109000", "075354.812000", "075356.109000", "075354.812000", "075356.109000", "075354.812000", "075356.109000", "075354.812000", "075356.109000", "075354.812000", "075356.109000", "075354.812000", "075356.125000", "075354.828000", "075356.125000", "075354.828000", "075356.125000", "075354.828000", "075356.125000", "075354.828000", "075356.125000", "075354.828000", "075356.125000", "075354.828000", "075356.125000", "075354.828000", "075356.125000", "075354.828000", "075356.140000", "075354.843000", "075356.140000", "075354.843000", "075356.140000", "075354.843000", "075356.140000", "075354.843000", "075356.140000", "075354.843000", "075356.156000", "075354.843000", "075356.156000", "075354.843000"], "InstanceNumber": [1, 2, 3, 4, 5, 6, 7, 8, 9, 10, 11, 12, 13, 14, 15, 16, 17, 18, 19, 20, 21, 22, 23, 24, 25, 26, 27, 28, 29, 30, 31, 32, 33, 34, 35, 36, 37, 38, 39, 40, 41, 42, 43, 44, 45, 46, 47, 48, 49, 50, 51, 52, 53, 54, 55, 56, 57, 58, 59, 60, 61, 62, 63, 64, 65, 66, 67, 68], "LargestImagePixelValue": [4094, 4093, 4093, 4093, 4094, 4094, 4094, 4093, 4093, 4093, 4094, 4087, 4094, 4094, 4093, 4094, 4091, 4092, 4092, 4094, 4093, 4090, 4091, 4093, 4094, 4094, 4089, 4094, 4090, 4090, 4094, 4094, 4092, 4093, 4091, 4094, 4091, 4091, 4088, 4092, 4094, 4094, 4092, 4092, 4091, 4091, 4094, 4093, 4094, 4091, 4093, 4094, 4094, 4092, 4094, 4094, 4091, 4094, 4094, 4094, 4093, 4093, 4094, 4094, 4093, 4094, 4094, 4094], "SliceLocation": [-27.833370944903, -25.433371157119, -23.033371504532, -20.633371716748, -18.233372064162, -15.833371452142, -13.433372211674, -11.033371805712, -8.633371296721, -6.2333718501939, -3.8333713412028, -1.4333714149585, 0.96662830522658, 3.3666284375301, 5.7666285698335, 8.1666278779003, 10.566629074299, 12.966628382366, 15.366627690433, 17.766628766902, 20.166628194898, 22.56662756293, 24.966628579434, 27.366627947466, 29.766627315497, 32.166628272037, 34.566629468436, 36.96662712803, 39.36662808457, 41.76662904111, 44.166626700703, 46.566628136961, 48.966629093501, 51.366630050041, 53.766627709634, 56.166628666175, 58.566630102432, 60.966627282308, 63.366628718565, 65.766629195388, 68.166630631646, 70.566627811522, 72.966625950833, 75.366630684037, 77.766627863913, 80.166626003223, 82.566629776993, 84.966627916304, 87.366626055614, 89.766630788818, 92.16662700926, 94.566625148571, 96.966629881775, 99.366628021086, 101.76662424153, 104.16662897473, 106.56662711404, 108.96663184725, 111.36662998656, 113.766626207, 116.1666309402, 118.56662907951, 120.96662721882, 123.36663195203, 125.76662817247, 128.16662631178, 130.56663104498, 132.9666291843], "SmallestImagePixelValue": [0, 2, 0, 0, 0, 1, 1, 0, 1, 2, 1, 4, 0, 2, 1, 3, 0, 1, 2, 2, 0, 3, 4, 0, 2, 0, 0, 1, 0, 0, 0, 0, 3, 2, 12, 1, 2, 1, 1, 0, 1, 0, 0, 0, 0, 0, 2, 0, 0, 1, 1, 0, 0, 0, 1, 2, 0, 1, 0, 0, 0, 2, 0, 1, 0, 0, 0, 0], "WindowCenter": [-244.0, -196.0, -236.0, -254.0, -390.0, -620.0, -570.0, -514.0, -542.0, -616.0, -616.0, -534.0, -592.0, -542.0, -490.0, -506.0, -488.0, -430.0, -480.0, -412.0, -382.0, -360.0, -336.0, -308.0, -306.0, -290.0, -326.0, -348.0, -370.0, -368.0, -328.0, -342.0, -316.0, -272.0, -246.0, -226.0, -218.0, -210.0, -194.0, -192.0, -174.0, -198.0, -214.0, -236.0, -236.0, -248.0, -258.0, -246.0, -214.0, -246.0, -266.0, -256.0, -278.0, -310.0, -272.0, -270.0, -318.0, -344.0, -376.0, -370.0, -424.0, -414.0, -458.0, -460.0, -486.0, -434.0, -444.0, -460.0], "WindowWidth": [6232.0, 6318.0, 6302.0, 6208.0, 5928.0, 5022.0, 4978.0, 4972.0, 4900.0, 4888.0, 4834.0, 4826.0, 4730.0, 4708.0, 4684.0, 4630.0, 4560.0, 4484.0, 4406.0, 4410.0, 4450.0, 4392.0, 4300.0, 4236.0, 4170.0, 4098.0, 4042.0, 3998.0, 3922.0, 3958.0, 4008.0, 3968.0, 4000.0, 4040.0, 4054.0, 4054.0, 4094.0, 4092.0, 4128.0, 4176.0, 4184.0, 4216.0, 4194.0, 4274.0, 4244.0, 4286.0, 4290.0, 4302.0, 4314.0, 4336.0, 4356.0, 4350.0, 4344.0, 4434.0, 4416.0, 4436.0, 4502.0, 4560.0, 4608.0, 4668.0, 4754.0, 4802.0, 4870.0, 4906.0, 4936.0, 4998.0, 5030.0, 5038.0]}}}