{"AcquisitionMatrixPE": 96, "AcquisitionNumber": 1, "AcquisitionTime": "17:25:46.222500", "BaseResolution": 96, "BodyPartExamined": "BRAIN", "ConsistencyInfo": "N4_VD11D_LATEST_20110129", "ConversionSoftware": "dcm2niix", "ConversionSoftwareVersion": "v1.0.20210317", "DeviceSerialNumber": "45239", "DwellTime": 9.2e-06, "EchoNumber": 2, "EchoTime": 0.00738, "EchoTime1": 0.00492, "EchoTime2": 0.00738, "FlipAngle": 50, "ImageOrientationPatientDICOM": [0.999833, -0.0163113, 0.00827518, 0.0182903, 0.891648, -0.452359], "ImageType": ["ORIGINAL", "PRIMARY", "P", "ND", "PHASE"], "ImagingFrequency": 123.193, "InPlanePhaseEncodingDirectionDICOM": "COL", "InstitutionAddress": "E 24th St. 100,Austin,Southmiddle,US,78712", "InstitutionName": "Univ of Texas at Austin", "InstitutionalDepartmentName": "IRC", "MRAcquisitionType": "2D", "MagneticFieldStrength": 3, "Manufacturer": "Siemens", "ManufacturersModelName": "Skyra", "Modality": "MR", "PartialFourier": 1, "PatientPosition": "HFS", "PercentPhaseFOV": 100, "PercentSampling": 100, "PhaseEncodingDirection": "j-", "PhaseEncodingSteps": 96, "PhaseResolution": 1, "PixelBandwidth": 565, "ProcedureStepDescription": "Poldrack2^self-scanning", "ProtocolName": "gre_field_mapping", "PulseSequenceDetails": "%SiemensSeq%\\gre_field_mapping", "ReceiveCoilActiveElements": "HEA;HEP", "ReceiveCoilName": "Head_32", "ReconMatrixPE": 96, "RepetitionTime": 0.731, "SAR": 0.11196, "ScanningSequence": "GR", "SequenceName": "*fm2d2r", "SequenceVariant": "SP", "SeriesDescription": "gre_field_mapping", "SeriesNumber": 9, "ShimSetting": [-2773, 8027, -15431, 167, -218, 92, 332, -99], "SliceThickness": 2, "SliceTiming": [0.35938, 0, 0.375, 0.01562, 0.39062, 0.01562, 0.39062, 0.03125, 0.40625, 0.04688, 0.42188, 0.04688, 0.42188, 0.0625, 0.4375, 0.07812, 0.45312, 0.07812, 0.45312, 0.09375, 0.46875, 0.10938, 0.48438, 0.10938, 0.48438, 0.125, 0.5, 0.14062, 0.51562, 0.14062, 0.51562, 0.15625, 0.53125, 0.17188, 0.54688, 0.17188, 0.5625, 0.1875, 0.5625, 0.20312, 0.57812, 0.20312, 0.59375, 0.21875, 0.59375, 0.23438, 0.60938, 0.25, 0.625, 0.25, 0.625, 0.26562, 0.64062, 0.28125, 0.65625, 0.28125, 0.65625, 0.29688, 0.67188, 0.3125, 0.6875, 0.3125, 0.70312, 0.32812, 0.70312, 0.34375, 0.71875, 0.34375], "SoftwareVersions": "syngo MR D11", "SpacingBetweenSlices": 2.4, "StationName": "AWP45239", "TxRefAmp": 334.612, "dcmmeta_affine": [[-2.395432472229004, 0.0438205748796463, 0.0, 116.12460327148438], [0.039079077541828156, 2.1362407207489014, -1.0858421325683594, -81.77584838867188], [0.019825953990221024, 1.083776831626892, 2.1403121948242188, -88.57382202148438], [0.0, 0.0, 0.0, 1.0]], "dcmmeta_reorient_transform": [[0.0, -1.0, 0.0, 95.0], [1.0, 0.0, 0.0, 0.0], [0.0, 0.0, -1.0, 67.0], [0.0, 0.0, 0.0, 1.0]], "dcmmeta_shape": [96, 96, 68], "dcmmeta_slice_dim": 2, "dcmmeta_version": 0.6, "global": {"const": {"AcquisitionMatrix": [96, 0, 0, 96], "AcquisitionNumber": 1, "AngioFlag": "N", "BitsAllocated": 16, "BitsStored": 12, "BodyPartExamined": "BRAIN", "Columns": 96, "EchoNumbers": 2, "EchoTime": 7.38, "EchoTrainLength": 0, "FlipAngle": 50.0, "HighBit": 11, "ImageOrientationPatient": [0.99983271798229, -0.0163112670455, 0.00827518093589, 0.01829032673715, 0.8916483470644, -0.4523590267975], "ImageType": ["ORIGINAL", "PRIMARY", "P", "ND"], "ImagedNucleus": "1H", "ImagingFrequency": 123.193437, "InPlanePhaseEncodingDirection": "COL", "MRAcquisitionType": "2D", "MagneticFieldStrength": 3.0, "Manufacturer": "SIEMENS", "ManufacturerModelName": "Skyra", "Modality": "MR", "NumberOfAverages": 1.0, "NumberOfPhaseEncodingSteps": 96, "PercentPhaseFieldOfView": 100.0, "PercentSampling": 100.0, "PerformedProcedureStepStartTime": "170745.906000", "PhotometricInterpretation": "MONOCHROME2", "PixelBandwidth": 565.0, "PixelRepresentation": 0, "PixelSpacing": [2.3958332538605, 2.3958332538605], "ProtocolName": "gre_field_mapping", "RepetitionTime": 731.0, "RescaleIntercept": -4096.0, "RescaleSlope": 2.0, "RescaleType": "US", "Rows": 96, "SAR": 0.11196035848694, "SamplesPerPixel": 1, "ScanningSequence": "GR", "SequenceName": "*fm2d2r", "SequenceVariant": "SP", "SeriesDescription": "gre_field_mapping", "SeriesNumber": 9, "SeriesTime": "172808.468000", "SliceThickness": 2.0, "SoftwareVersions": "syngo MR D11", "SpacingBetweenSlices": 2.4, "SpecificCharacterSet": "ISO_IR 100", "StudyID": "1", "StudyTime": "170745.859000", "TransmitCoilName": "Body", "VariableFlipAngleFlag": "N", "WindowCenterWidthExplanation": "Algo1", "dBdt": 0.0}, "slices": {"AcquisitionTime": ["172546.222500", "172545.855000", "172546.232500", "172545.867500", "172546.242500", "172545.877500", "172546.252500", "172545.887500", "172546.265000", "172545.900000", "172546.275000", "172545.910000", "172546.285000", "172545.920000", "172546.297500", "172545.930000", "172546.307500", "172545.942500", "172546.317500", "172545.952500", "172546.330000", "172545.962500", "172546.340000", "172545.975000", "172546.350000", "172545.985000", "172546.360000", "172545.995000", "172546.372500", "172546.007500", "172546.382500", "172546.017500", "172546.392500", "172546.027500", "172546.405000", "172546.037500", "172546.415000", "172546.050000", "172546.425000", "172546.060000", "172546.437500", "172546.070000", "172546.447500", "172546.082500", "172546.457500", "172546.092500", "172546.467500", "172546.102500", "172546.480000", "172546.115000", "172546.490000", "172546.125000", "172546.500000", "172546.135000", "172546.512500", "172546.145000", "172546.522500", "172546.157500", "172546.532500", "172546.167500", "172546.545000", "172546.177500", "172546.555000", "172546.190000", "172546.565000", "172546.200000", "172546.575000", "172546.210000"], "ContentTime": ["172808.531000", "172808.468000", "172808.531000", "172808.468000", "172808.531000", "172808.468000", "172808.531000", "172808.468000", "172808.531000", "172808.468000", "172808.546000", "172808.468000", "172808.546000", "172808.484000", "172808.546000", "172808.484000", "172808.546000", "172808.484000", "172808.546000", "172808.484000", "172808.546000", "172808.484000", "172808.546000", "172808.484000", "172808.546000", "172808.484000", "172808.562000", "172808.484000", "172808.562000", "172808.484000", "172808.562000", "172808.500000", "172808.562000", "172808.500000", "172808.562000", "172808.500000", "172808.562000", "172808.500000", "172808.562000", "172808.500000", "172808.578000", "172808.500000", "172808.578000", "172808.500000", "172808.578000", "172808.500000", "172808.578000", "172808.515000", "172808.593000", "172808.515000", "172808.593000", "172808.515000", "172808.593000", "172808.515000", "172808.593000", "172808.515000", "172808.593000", "172808.515000", "172808.593000", "172808.515000", "172808.593000", "172808.515000", "172808.609000", "172808.531000", "172808.609000", "172808.531000", "172808.609000", "172808.531000"], "CsaImage.GSWDDataType": ["predicted", "predicted", "predicted", "predicted", "predicted", "predicted", "predicted", "predicted", "predicted", "predicted", "predicted", "predicted", "predicted", "predicted", "predicted", "predicted", "predicted", "predicted", "predicted", "predicted", "predicted", "predicted", "predicted", "predicted", "predicted", "predicted", "predicted", "predicted", "predicted", "predicted", "measured", "predicted", "measured", "predicted", "measured", "predicted", "measured", "predicted", "measured", "predicted", "measured", "predicted", "measured", "predicted", "measured", "predicted", "measured", "predicted", "measured", "predicted", "measured", "predicted", "measured", "predicted", "measured", "predicted", "measured", "predicted", "measured", "predicted", "measured", "predicted", "measured", "predicted", "measured", "predicted", "measured", "predicted"], "CsaImage.ICE_Dims": ["X_2_1_1_1_1_1_35_1_1_1_1_71", "X_2_1_1_1_1_1_1_1_1_2_1_71", "X_2_1_1_1_1_1_36_1_1_3_1_71", "X_2_1_1_1_1_1_2_1_1_4_1_71", "X_2_1_1_1_1_1_37_1_1_5_1_71", "X_2_1_1_1_1_1_3_1_1_6_1_71", "X_2_1_1_1_1_1_38_1_1_7_1_71", "X_2_1_1_1_1_1_4_1_1_8_1_71", "X_2_1_1_1_1_1_39_1_1_9_1_71", "X_2_1_1_1_1_1_5_1_1_10_1_71", "X_2_1_1_1_1_1_40_1_1_11_1_71", "X_2_1_1_1_1_1_6_1_1_12_1_71", "X_2_1_1_1_1_1_41_1_1_13_1_71", "X_2_1_1_1_1_1_7_1_1_14_1_71", "X_2_1_1_1_1_1_42_1_1_15_1_71", "X_2_1_1_1_1_1_8_1_1_16_1_71", "X_2_1_1_1_1_1_43_1_1_17_1_71", "X_2_1_1_1_1_1_9_1_1_18_1_71", "X_2_1_1_1_1_1_44_1_1_19_1_71", "X_2_1_1_1_1_1_10_1_1_20_1_71", "X_2_1_1_1_1_1_45_1_1_21_1_71", "X_2_1_1_1_1_1_11_1_1_22_1_71", "X_2_1_1_1_1_1_46_1_1_23_1_71", "X_2_1_1_1_1_1_12_1_1_24_1_71", "X_2_1_1_1_1_1_47_1_1_25_1_71", "X_2_1_1_1_1_1_13_1_1_26_1_71", "X_2_1_1_1_1_1_48_1_1_27_1_71", "X_2_1_1_1_1_1_14_1_1_28_1_71", "X_2_1_1_1_1_1_49_1_1_29_1_71", "X_2_1_1_1_1_1_15_1_1_30_1_71", "X_2_1_1_1_1_1_50_1_1_31_1_71", "X_2_1_1_1_1_1_16_1_1_32_1_71", "X_2_1_1_1_1_1_51_1_1_33_1_71", "X_2_1_1_1_1_1_17_1_1_34_1_71", "X_2_1_1_1_1_1_52_1_1_35_1_71", "X_2_1_1_1_1_1_18_1_1_36_1_71", "X_2_1_1_1_1_1_53_1_1_37_1_71", "X_2_1_1_1_1_1_19_1_1_38_1_71", "X_2_1_1_1_1_1_54_1_1_39_1_71", "X_2_1_1_1_1_1_20_1_1_40_1_71", "X_2_1_1_1_1_1_55_1_1_41_1_71", "X_2_1_1_1_1_1_21_1_1_42_1_71", "X_2_1_1_1_1_1_56_1_1_43_1_71", "X_2_1_1_1_1_1_22_1_1_44_1_71", "X_2_1_1_1_1_1_57_1_1_45_1_71", "X_2_1_1_1_1_1_23_1_1_46_1_71", "X_2_1_1_1_1_1_58_1_1_47_1_71", "X_2_1_1_1_1_1_24_1_1_48_1_71", "X_2_1_1_1_1_1_59_1_1_49_1_71", "X_2_1_1_1_1_1_25_1_1_50_1_71", "X_2_1_1_1_1_1_60_1_1_51_1_71", "X_2_1_1_1_1_1_26_1_1_52_1_71", "X_2_1_1_1_1_1_61_1_1_53_1_71", "X_2_1_1_1_1_1_27_1_1_54_1_71", "X_2_1_1_1_1_1_62_1_1_55_1_71", "X_2_1_1_1_1_1_28_1_1_56_1_71", "X_2_1_1_1_1_1_63_1_1_57_1_71", "X_2_1_1_1_1_1_29_1_1_58_1_71", "X_2_1_1_1_1_1_64_1_1_59_1_71", "X_2_1_1_1_1_1_30_1_1_60_1_71", "X_2_1_1_1_1_1_65_1_1_61_1_71", "X_2_1_1_1_1_1_31_1_1_62_1_71", "X_2_1_1_1_1_1_66_1_1_63_1_71", "X_2_1_1_1_1_1_32_1_1_64_1_71", "X_2_1_1_1_1_1_67_1_1_65_1_71", "X_2_1_1_1_1_1_33_1_1_66_1_71", "X_2_1_1_1_1_1_68_1_1_67_1_71", "X_2_1_1_1_1_1_34_1_1_68_1_71"], "CsaImage.ProtocolSliceNumber": [0, 1, 2, 3, 4, 5, 6, 7, 8, 9, 10, 11, 12, 13, 14, 15, 16, 17, 18, 19, 20, 21, 22, 23, 24, 25, 26, 27, 28, 29, 30, 31, 32, 33, 34, 35, 36, 37, 38, 39, 40, 41, 42, 43, 44, 45, 46, 47, 48, 49, 50, 51, 52, 53, 54, 55, 56, 57, 58, 59, 60, 61, 62, 63, 64, 65, 66, 67], "CsaImage.RFSWDDataType": ["predicted", "predicted", "predicted", "predicted", "predicted", "predicted", "predicted", "predicted", "predicted", "predicted", "predicted", "predicted", "predicted", "predicted", "predicted", "predicted", "predicted", "predicted", "predicted", "predicted", "predicted", "predicted", "predicted", "predicted", "predicted", "predicted", "predicted", "predicted", "measured", "predicted", "measured", "predicted", "measured", "predicted", "measured", "predicted", "measured", "predicted", "measured", "predicted", "measured", "predicted", "measured", "predicted", "measured", "predicted", "measured", "predicted", "measured", "predicted", "measured", "predicted", "measured", "predicted", "measured", "predicted", "measured", "predicted", "measured", "predicted", "measured", "predicted", "measured", "predicted", "measured", "predicted", "measured", "predicted"], "CsaImage.SlicePosition_PCS": [[-120.28755831, -121.16710063, 14.38484902], [-120.28755831, -120.0812585, 16.52516121], [-120.28755831, -118.99541446, 18.66547722], [-120.28755831, -117.90957042, 20.80578941], [-120.28755831, -116.82372829, 22.94610352], [-120.28755831, -115.73788425, 25.08641762], [-120.28755831, -114.65204116, 27.22673172], [-120.28755831, -113.56619807, 29.36704582], [-120.28755831, -112.48035403, 31.50735993], [-120.28755831, -111.39451095, 33.64767403], [-120.28755831, -110.30866786, 35.78798813], [-120.28755831, -109.22282477, 37.92830223], [-120.28755831, -108.13698121, 40.06861633], [-120.28755831, -107.05113813, 42.20893044], [-120.28755831, -105.96529456, 44.34924454], [-120.28755831, -104.87945148, 46.48955864], [-120.28755831, -103.79360815, 48.62987298], [-120.28755831, -102.70776483, 50.77018693], [-120.28755831, -101.6219215, 52.91050107], [-120.28755831, -100.53607818, 55.05081505], [-120.28755831, -99.45023485, 57.19112915], [-120.28755831, -98.36439153, 59.33144325], [-120.28755831, -97.2785482, 61.47175736], [-120.28755831, -96.19270488, 63.61207146], [-120.28755831, -95.10686179, 65.75238556], [-120.28755831, -94.02101823, 67.89269966], [-120.28755831, -92.93517514, 70.03301376], [-120.28755831, -91.84933158, 72.17332787], [-120.28755831, -90.76348849, 74.31364197], [-120.28755831, -89.67764541, 76.45395607], [-120.28755831, -88.59180232, 78.59427017], [-120.28755831, -87.50595828, 80.73458428], [-120.28755831, -86.42011519, 82.87489838], [-120.28755831, -85.33427211, 85.01521248], [-120.28755831, -84.24842807, 87.15552467], [-120.28755831, -83.16258594, 89.29584068], [-120.28755831, -82.0767419, 91.43615288], [-120.28755831, -80.99089786, 93.57646889], [-120.28755831, -79.90505572, 95.71678108], [-120.28755831, -78.81921168, 97.85709709], [-120.28755831, -77.73336955, 99.99740929], [-120.28755831, -76.64752551, 102.1377253], [-120.28755831, -75.56168147, 104.27803749], [-120.28755831, -74.47583934, 106.4183535], [-120.28755831, -73.3899953, 108.5586657], [-120.28755831, -72.30415317, 110.69898171], [-120.28755831, -71.21830913, 112.8392939], [-120.28755831, -70.13246509, 114.97960991], [-120.28755831, -69.04662295, 117.11992592], [-120.28755831, -67.96078082, 119.26023811], [-120.28755831, -66.87493487, 121.40055031], [-120.28755831, -65.78909274, 123.5408625], [-120.28755831, -64.70325061, 125.68118233], [-120.28755831, -63.61740466, 127.82149452], [-120.28755831, -62.53156253, 129.96180672], [-120.28755831, -61.4457204, 132.10211891], [-120.28755831, -60.35987445, 134.24243874], [-120.28755831, -59.27403232, 136.38275093], [-120.28755831, -58.18819018, 138.52306313], [-120.28755831, -57.10234424, 140.66337532], [-120.28755831, -56.0165021, 142.80369515], [-120.28755831, -54.93065997, 144.94400734], [-120.28755831, -53.84481784, 147.08431954], [-120.28755831, -52.75897189, 149.22463173], [-120.28755831, -51.67312976, 151.36495155], [-120.28755831, -50.58728763, 153.50526375], [-120.28755831, -49.50144168, 155.64557594], [-120.28755831, -48.41559955, 157.78588814]], "CsaImage.TimeAfterStart": [1.1, 0.735, 1.11, 0.745, 1.1225, 0.755, 1.1325, 0.7675, 1.1425, 0.7775, 1.1525, 0.7875, 1.165, 0.8, 1.175, 0.81, 1.185, 0.82, 1.1975, 0.83, 1.2075, 0.8425, 1.2175, 0.8525, 1.23, 0.8625, 1.24, 0.875, 1.25, 0.885, 1.26, 0.895, 1.2725, 0.9075, 1.2825, 0.9175, 1.2925, 0.9275, 1.305, 0.9375, 1.315, 0.95, 1.325, 0.96, 1.3375, 0.97, 1.3475, 0.9825, 1.3575, 0.9925, 1.3675, 1.0025, 1.38, 1.015, 1.39, 1.025, 1.4, 1.035, 1.4125, 1.045, 1.4225, 1.0575, 1.4325, 1.0675, 1.445, 1.0775, 1.455, 1.09], "ImagePositionPatient": [[-120.28755831487, -121.16710063048, 14.384849015097], [-120.28755831487, -120.08125849791, 16.525161209921], [-120.28755831487, -118.995414458, 18.665477219442], [-120.28755831487, -117.90957041808, 20.805789414267], [-120.28755831487, -116.82372828551, 22.94610351644], [-120.28755831487, -115.7378842456, 25.086417618612], [-120.28755831487, -114.65204115935, 27.226731720785], [-120.28755831487, -113.56619807311, 29.367045822958], [-120.28755831487, -112.48035403319, 31.507359925131], [-120.28755831487, -111.39451094695, 33.647674027304], [-120.28755831487, -110.30866786071, 35.787988129477], [-120.28755831487, -109.22282477446, 37.92830223165], [-120.28755831487, -108.13698121139, 40.068616333822], [-120.28755831487, -107.05113812514, 42.208930435995], [-120.28755831487, -105.96529456206, 44.349244538168], [-120.28755831487, -104.87945147582, 46.489558640341], [-120.28755831487, -103.79360815116, 48.629872980932], [-120.28755831487, -102.7077648265, 50.770186934094], [-120.28755831487, -101.62192150184, 52.910501066069], [-120.28755831487, -100.53607817717, 55.050815049032], [-120.28755831487, -99.450234852514, 57.191129151205], [-120.28755831487, -98.364391527852, 59.331443253378], [-120.28755831487, -97.278548203191, 61.471757355551], [-120.28755831487, -96.19270487853, 63.612071457724], [-120.28755831487, -95.106861792287, 65.752385559897], [-120.28755831487, -94.021018229207, 67.892699662069], [-120.28755831487, -92.935175142965, 70.033013764242], [-120.28755831487, -91.849331579885, 72.173327866415], [-120.28755831487, -90.763488493642, 74.313641968588], [-120.28755831487, -89.677645407399, 76.453956070761], [-120.28755831487, -88.591802321157, 78.594270172934], [-120.28755831487, -87.50595828124, 80.734584275107], [-120.28755831487, -86.420115194997, 82.874898377279], [-120.28755831487, -85.334272108754, 85.015212479452], [-120.28755831487, -84.248428068837, 87.155524674276], [-120.28755831487, -83.162585936269, 89.295840683798], [-120.28755831487, -82.076741896352, 91.436152878622], [-120.28755831487, -80.990897856435, 93.576468888144], [-120.28755831487, -79.905055723867, 95.716781082968], [-120.28755831487, -78.81921168395, 97.857097092489], [-120.28755831487, -77.733369551381, 99.997409287314], [-120.28755831487, -76.647525511464, 102.13772529684], [-120.28755831487, -75.561681471547, 104.27803749166], [-120.28755831487, -74.475839338979, 106.41835350118], [-120.28755831487, -73.389995299062, 108.558665696], [-120.28755831487, -72.304153166494, 110.69898170553], [-120.28755831487, -71.218309126577, 112.83929390035], [-120.28755831487, -70.13246508666, 114.97960990987], [-120.28755831487, -69.046622954091, 117.11992591939], [-120.28755831487, -67.960780821523, 119.26023811422], [-120.28755831487, -66.874934874257, 121.40055030904], [-120.28755831487, -65.789092741689, 123.54086250387], [-120.28755831487, -64.703250609121, 125.68118232809], [-120.28755831487, -63.617404661855, 127.82149452291], [-120.28755831487, -62.531562529287, 129.96180671773], [-120.28755831487, -61.445720396718, 132.10211891256], [-120.28755831487, -60.359874449453, 134.24243873678], [-120.28755831487, -59.274032316884, 136.3827509316], [-120.28755831487, -58.188190184316, 138.52306312642], [-120.28755831487, -57.10234423705, 140.66337532125], [-120.28755831487, -56.016502104482, 142.80369514547], [-120.28755831487, -54.930659971914, 144.94400734029], [-120.28755831487, -53.844817839345, 147.08431953512], [-120.28755831487, -52.75897189208, 149.22463172994], [-120.28755831487, -51.673129759511, 151.36495155416], [-120.28755831487, -50.587287626943, 153.50526374898], [-120.28755831487, -49.501441679677, 155.64557594381], [-120.28755831487, -48.415599547109, 157.78588813863]], "InstanceCreationTime": ["172808.531000", "172808.468000", "172808.531000", "172808.468000", "172808.531000", "172808.468000", "172808.531000", "172808.468000", "172808.531000", "172808.468000", "172808.546000", "172808.468000", "172808.546000", "172808.484000", "172808.546000", "172808.484000", "172808.546000", "172808.484000", "172808.546000", "172808.484000", "172808.546000", "172808.484000", "172808.546000", "172808.484000", "172808.546000", "172808.484000", "172808.562000", "172808.484000", "172808.562000", "172808.484000", "172808.562000", "172808.500000", "172808.562000", "172808.500000", "172808.562000", "172808.500000", "172808.562000", "172808.500000", "172808.562000", "172808.500000", "172808.578000", "172808.500000", "172808.578000", "172808.500000", "172808.578000", "172808.500000", "172808.578000", "172808.515000", "172808.593000", "172808.515000", "172808.593000", "172808.515000", "172808.593000", "172808.515000", "172808.593000", "172808.515000", "172808.593000", "172808.515000", "172808.593000", "172808.515000", "172808.593000", "172808.515000", "172808.609000", "172808.531000", "172808.609000", "172808.531000", "172808.609000", "172808.531000"], "InstanceNumber": [1, 2, 3, 4, 5, 6, 7, 8, 9, 10, 11, 12, 13, 14, 15, 16, 17, 18, 19, 20, 21, 22, 23, 24, 25, 26, 27, 28, 29, 30, 31, 32, 33, 34, 35, 36, 37, 38, 39, 40, 41, 42, 43, 44, 45, 46, 47, 48, 49, 50, 51, 52, 53, 54, 55, 56, 57, 58, 59, 60, 61, 62, 63, 64, 65, 66, 67, 68], "LargestImagePixelValue": [4094, 4094, 4093, 4094, 4094, 4094, 4094, 4094, 4093, 4094, 4093, 4094, 4093, 4094, 4093, 4094, 4094, 4094, 4094, 4094, 4094, 4094, 4092, 4094, 4094, 4094, 4093, 4094, 4093, 4089, 4093, 4094, 4091, 4093, 4094, 4089, 4092, 4094, 4094, 4092, 4089, 4091, 4091, 4091, 4090, 4090, 4093, 4092, 4093, 4088, 4093, 4094, 4094, 4093, 4092, 4090, 4094, 4091, 4094, 4092, 4092, 4092, 4094, 4094, 4094, 4094, 4092, 4094], "SliceLocation": [-41.991829054496, -39.59183125696, -37.191829194537, -34.791830534051, -32.391831035547, -29.991830674092, -27.591830744113, -25.191830814134, -22.791830452679, -20.391830522699, -17.99183059272, -15.591830662741, -13.191830517024, -10.791830587044, -8.3918304413273, -5.9918305113479, -3.5918302608786, -1.1918303559186, 1.2081697085072, 3.6081696400449, 6.0081696778931, 8.4081697157413, 10.80816975359, 13.208169791438, 15.608169721417, 18.008169867134, 20.408169797113, 22.808169942831, 25.20816987281, 27.608169802789, 30.008169732769, 32.408170094223, 34.808170024203, 37.208169954182, 39.608168614668, 42.008169814141, 44.408168474627, 46.80817053705, 49.208168334585, 51.608170397009, 54.008168194544, 56.408170256968, 58.808168917454, 61.208170116926, 63.608168777412, 66.008169976885, 68.408168637371, 70.808170699795, 73.208171899267, 75.608169696803, 78.008169220239, 80.408167017775, 82.808171619185, 85.208171142622, 87.608168940157, 90.008166737692, 92.408173065004, 94.808170862539, 97.208168660074, 99.608168183511, 102.00817278492, 104.40817058246, 106.80816837999, 109.20816790343, 111.60817250484, 114.00817030237, 116.40816982581, 118.80816762335], "SmallestImagePixelValue": [0, 0, 1, 0, 2, 0, 1, 1, 2, 1, 1, 0, 0, 0, 0, 0, 1, 1, 0, 0, 2, 0, 0, 1, 0, 0, 8, 3, 3, 0, 3, 3, 1, 2, 9, 1, 2, 0, 2, 0, 0, 0, 0, 1, 10, 0, 6, 0, 5, 1, 5, 0, 0, 0, 0, 0, 0, 0, 0, 0, 0, 0, 2, 1, 2, 1, 0, 1], "WindowCenter": [-372.0, -204.0, -184.0, -220.0, -262.0, -238.0, -272.0, -312.0, -590.0, -666.0, -608.0, -470.0, -454.0, -508.0, -574.0, -546.0, -486.0, -424.0, -374.0, -402.0, -416.0, -366.0, -368.0, -336.0, -322.0, -300.0, -330.0, -316.0, -312.0, -348.0, -318.0, -298.0, -286.0, -306.0, -294.0, -222.0, -192.0, -170.0, -160.0, -134.0, -130.0, -128.0, -136.0, -122.0, -128.0, -134.0, -136.0, -178.0, -206.0, -202.0, -188.0, -218.0, -172.0, -226.0, -264.0, -262.0, -252.0, -264.0, -276.0, -322.0, -322.0, -352.0, -376.0, -404.0, -446.0, -472.0, -444.0, -490.0], "WindowWidth": [5072.0, 6226.0, 6280.0, 6238.0, 6284.0, 6404.0, 6312.0, 6160.0, 4966.0, 4948.0, 4928.0, 4958.0, 4924.0, 4948.0, 4872.0, 4804.0, 4734.0, 4706.0, 4622.0, 4584.0, 4536.0, 4508.0, 4468.0, 4480.0, 4404.0, 4358.0, 4284.0, 4234.0, 4124.0, 4076.0, 4032.0, 4018.0, 4002.0, 4054.0, 4066.0, 4112.0, 4146.0, 4200.0, 4198.0, 4222.0, 4278.0, 4288.0, 4298.0, 4308.0, 4306.0, 4316.0, 4294.0, 4336.0, 4358.0, 4348.0, 4368.0, 4392.0, 4386.0, 4410.0, 4406.0, 4388.0, 4458.0, 4472.0, 4502.0, 4542.0, 4610.0, 4634.0, 4764.0, 4770.0, 4852.0, 4848.0, 4926.0, 4924.0]}}}