{
    "AcquisitionMatrixPE": 96,
    "AcquisitionNumber": 1,
    "AcquisitionTime": "07:42:20.127500",
    "BandwidthPerPixelPhaseEncode": 33.602,
    "BaseResolution": 96,
    "BodyPartExamined": "BRAIN",
    "ConsistencyInfo": "N4_VD11D_LATEST_20110129",
    "ConversionSoftware": "dcm2niix",
    "ConversionSoftwareVersion": "v1.0.20210317",
    "DerivedVendorReportedEchoSpacing": 0.000620003,
    "DeviceSerialNumber": "45239",
    "DwellTime": 2.6e-06,
    "EchoTime": 0.03,
    "EchoTrainLength": 48,
    "EffectiveEchoSpacing": 0.000310001,
    "FlipAngle": 63,
    "ImageComments": "Unaliased MB4/PE3",
    "ImageOrientationPatientDICOM": [
        0.999999,
        -0.00127457,
        0.00064104,
        0.0014267,
        0.893371,
        -0.449319
    ],
    "ImageType": [
        "ORIGINAL",
        "PRIMARY",
        "M",
        "ND",
        "NORM",
        "MOSAIC"
    ],
    "ImagingFrequency": 123.193,
    "InPlanePhaseEncodingDirectionDICOM": "COL",
    "InstitutionAddress": "E 24th St. 100,Austin,Southmiddle,US,78712",
    "InstitutionName": "Univ of Texas at Austin",
    "InstitutionalDepartmentName": "IRC",
    "MRAcquisitionType": "2D",
    "MagneticFieldStrength": 3,
    "Manufacturer": "Siemens",
    "ManufacturersModelName": "Skyra",
    "Modality": "MR",
    "MultibandAccelerationFactor": 4,
    "ParallelReductionFactorInPlane": 2,
    "PartialFourier": 1,
    "PatientPosition": "HFS",
    "PercentPhaseFOV": 100,
    "PercentSampling": 100,
    "PhaseEncodingDirection": "j-",
    "PhaseEncodingSteps": 96,
    "PhaseResolution": 1,
    "PixelBandwidth": 2005,
    "ProcedureStepDescription": "Poldrack2^self-scanning",
    "ProtocolName": "Breath_Hold",
    "PulseSequenceDetails": "%CustomerSeq%\\cmrr_mbep2d_bold",
    "ReceiveCoilActiveElements": "HEA;HEP",
    "ReceiveCoilName": "Head_32",
    "ReconMatrixPE": 96,
    "RefLinesPE": 94,
    "RepetitionTime": 1.16,
    "SAR": 0.0956681,
    "ScanOptions": "FS",
    "ScanningSequence": "EP",
    "SequenceName": "epfid2d1_96",
    "SequenceVariant": "SK",
    "SeriesDescription": "Breath_Hold",
    "SeriesNumber": 10,
    "ShimSetting": [
        -2784,
        8057,
        -15437,
        136,
        -189,
        191,
        273,
        -105
    ],
    "SliceThickness": 2,
    "SliceTiming": [
        0,
        0.5,
        0.9975,
        0.3575,
        0.855,
        0.215,
        0.7125,
        0.0725,
        0.57,
        1.07,
        0.4275,
        0.9275,
        0.285,
        0.785,
        0.1425,
        0.6425,
        0,
        0.5,
        0.9975,
        0.3575,
        0.855,
        0.215,
        0.7125,
        0.0725,
        0.57,
        1.07,
        0.4275,
        0.9275,
        0.285,
        0.785,
        0.1425,
        0.6425,
        0,
        0.5,
        0.9975,
        0.3575,
        0.855,
        0.215,
        0.7125,
        0.0725,
        0.57,
        1.07,
        0.4275,
        0.9275,
        0.285,
        0.785,
        0.1425,
        0.6425,
        0,
        0.5,
        0.9975,
        0.3575,
        0.855,
        0.215,
        0.7125,
        0.0725,
        0.57,
        1.07,
        0.4275,
        0.9275,
        0.285,
        0.785,
        0.1425,
        0.6425
    ],
    "SoftwareVersions": "syngo MR D11",
    "SpacingBetweenSlices": 2.4,
    "StationName": "AWP45239",
    "TaskName": "Breath holding task",
    "TotalReadoutTime": 0.0294501,
    "TxRefAmp": 335.074,
    "WipMemBlock": "4b2d9e97-b315-4292-8de7-7de44d6aa3f3||Sequence: VD11D r206; Feb 13 2013 18:52:04 by eja",
    "dcmmeta_affine": [
        [
            -2.3958308696746826,
            0.0034181352239102125,
            -9.334764072832513e-09,
            119.65787506103516
        ],
        [
            0.0030536684207618237,
            2.140366792678833,
            -1.0783655643463135,
            -88.8027114868164
        ],
        [
            0.0015358247328549623,
            1.0764923095703125,
            2.1440913677215576,
            -85.17127227783203
        ],
        [
            0.0,
            0.0,
            0.0,
            1.0
        ]
    ],
    "dcmmeta_reorient_transform": [
        [
            0.0,
            -1.0,
            0.0,
            95.0
        ],
        [
            1.0,
            0.0,
            0.0,
            0.0
        ],
        [
            0.0,
            0.0,
            1.0,
            0.0
        ],
        [
            0.0,
            0.0,
            0.0,
            1.0
        ]
    ],
    "dcmmeta_shape": [
        96,
        96,
        64,
        318
    ],
    "dcmmeta_slice_dim": 2,
    "dcmmeta_version": 0.6,
    "global": {
        "const": {
            "AcquisitionMatrix": [
                96,
                0,
                0,
                96
            ],
            "AngioFlag": "N",
            "BitsAllocated": 16,
            "BitsStored": 16,
            "BodyPartExamined": "BRAIN",
            "Columns": 768,
            "EchoNumbers": 1,
            "EchoTime": 30.0,
            "EchoTrainLength": 48,
            "FlipAngle": 63.0,
            "HighBit": 15,
            "ImageOrientationPatient": [
                0.9999989822631,
                -0.0012745746694,
                0.00064103991241,
                0.00142669995341,
                0.89337048166305,
                -0.4493185362528
            ],
            "ImagePositionPatient": [
                -926.13024541642,
                -832.66930542278,
                378.28086442255
            ],
            "ImageType": [
                "ORIGINAL",
                "PRIMARY",
                "M",
                "ND",
                "NORM",
                "MOSAIC"
            ],
            "ImagedNucleus": "1H",
            "ImagingFrequency": 123.193213,
            "InPlanePhaseEncodingDirection": "COL",
            "MRAcquisitionType": "2D",
            "MagneticFieldStrength": 3.0,
            "Manufacturer": "SIEMENS",
            "ManufacturerModelName": "Skyra",
            "Modality": "MR",
            "NumberOfAverages": 1.0,
            "NumberOfPhaseEncodingSteps": 96,
            "PercentPhaseFieldOfView": 100.0,
            "PercentSampling": 100.0,
            "PerformedProcedureStepStartTime": "071825.968000",
            "PhotometricInterpretation": "MONOCHROME2",
            "PixelBandwidth": 2005.0,
            "PixelRepresentation": 0,
            "PixelSpacing": [
                2.3958332538605,
                2.3958332538605
            ],
            "ProtocolName": "Breath_Hold",
            "RepetitionTime": 1160.0,
            "Rows": 768,
            "SAR": 0.09566814217858,
            "SamplesPerPixel": 1,
            "ScanOptions": "FS",
            "ScanningSequence": "EP",
            "SequenceName": "epfid2d1_96",
            "SequenceVariant": "SK",
            "SeriesDescription": "Breath_Hold",
            "SeriesNumber": 10,
            "SeriesTime": "074259.734000",
            "SliceLocation": -36.188835869912,
            "SliceThickness": 2.0,
            "SmallestImagePixelValue": 0,
            "SoftwareVersions": "syngo MR D11",
            "SpacingBetweenSlices": 2.400000063089,
            "SpecificCharacterSet": "ISO_IR 100",
            "StudyID": "1",
            "StudyTime": "071825.859000",
            "TransmitCoilName": "Body",
            "VariableFlipAngleFlag": "N",
            "WindowCenterWidthExplanation": "Algo1",
            "dBdt": 0.0
        },
        "slices": {}
    },
    "time": {
        "samples": {
            "AcquisitionNumber": [
                1,
                2,
                3,
                4,
                5,
                6,
                7,
                8,
                9,
                10,
                11,
                12,
                13,
                14,
                15,
                16,
                17,
                18,
                19,
                20,
                21,
                22,
                23,
                24,
                25,
                26,
                27,
                28,
                29,
                30,
                31,
                32,
                33,
                34,
                35,
                36,
                37,
                38,
                39,
                40,
                41,
                42,
                43,
                44,
                45,
                46,
                47,
                48,
                49,
                50,
                51,
                52,
                53,
                54,
                55,
                56,
                57,
                58,
                59,
                60,
                61,
                62,
                63,
                64,
                65,
                66,
                67,
                68,
                69,
                70,
                71,
                72,
                73,
                74,
                75,
                76,
                77,
                78,
                79,
                80,
                81,
                82,
                83,
                84,
                85,
                86,
                87,
                88,
                89,
                90,
                91,
                92,
                93,
                94,
                95,
                96,
                97,
                98,
                99,
                100,
                101,
                102,
                103,
                104,
                105,
                106,
                107,
                108,
                109,
                110,
                111,
                112,
                113,
                114,
                115,
                116,
                117,
                118,
                119,
                120,
                121,
                122,
                123,
                124,
                125,
                126,
                127,
                128,
                129,
                130,
                131,
                132,
                133,
                134,
                135,
                136,
                137,
                138,
                139,
                140,
                141,
                142,
                143,
                144,
                145,
                146,
                147,
                148,
                149,
                150,
                151,
                152,
                153,
                154,
                155,
                156,
                157,
                158,
                159,
                160,
                161,
                162,
                163,
                164,
                165,
                166,
                167,
                168,
                169,
                170,
                171,
                172,
                173,
                174,
                175,
                176,
                177,
                178,
                179,
                180,
                181,
                182,
                183,
                184,
                185,
                186,
                187,
                188,
                189,
                190,
                191,
                192,
                193,
                194,
                195,
                196,
                197,
                198,
                199,
                200,
                201,
                202,
                203,
                204,
                205,
                206,
                207,
                208,
                209,
                210,
                211,
                212,
                213,
                214,
                215,
                216,
                217,
                218,
                219,
                220,
                221,
                222,
                223,
                224,
                225,
                226,
                227,
                228,
                229,
                230,
                231,
                232,
                233,
                234,
                235,
                236,
                237,
                238,
                239,
                240,
                241,
                242,
                243,
                244,
                245,
                246,
                247,
                248,
                249,
                250,
                251,
                252,
                253,
                254,
                255,
                256,
                257,
                258,
                259,
                260,
                261,
                262,
                263,
                264,
                265,
                266,
                267,
                268,
                269,
                270,
                271,
                272,
                273,
                274,
                275,
                276,
                277,
                278,
                279,
                280,
                281,
                282,
                283,
                284,
                285,
                286,
                287,
                288,
                289,
                290,
                291,
                292,
                293,
                294,
                295,
                296,
                297,
                298,
                299,
                300,
                301,
                302,
                303,
                304,
                305,
                306,
                307,
                308,
                309,
                310,
                311,
                312,
                313,
                314,
                315,
                316,
                317,
                318
            ],
            "AcquisitionTime": [
                "074220.127500",
                "074249.127500",
                "074250.287500",
                "074251.447500",
                "074252.607500",
                "074253.767500",
                "074254.927500",
                "074256.087500",
                "074257.247500",
                "074258.407500",
                "074259.567500",
                "074300.727500",
                "074301.887500",
                "074303.047500",
                "074304.207500",
                "074305.367500",
                "074306.527500",
                "074307.687500",
                "074308.847500",
                "074310.007500",
                "074311.167500",
                "074312.327500",
                "074313.487500",
                "074314.647500",
                "074315.807500",
                "074316.967500",
                "074318.127500",
                "074319.287500",
                "074320.447500",
                "074321.607500",
                "074322.767500",
                "074323.927500",
                "074325.087500",
                "074326.247500",
                "074327.407500",
                "074328.567500",
                "074329.727500",
                "074330.887500",
                "074332.047500",
                "074333.207500",
                "074334.367500",
                "074335.527500",
                "074336.687500",
                "074337.847500",
                "074339.007500",
                "074340.167500",
                "074341.327500",
                "074342.487500",
                "074343.647500",
                "074344.807500",
                "074345.967500",
                "074347.127500",
                "074348.287500",
                "074349.447500",
                "074350.607500",
                "074351.767500",
                "074352.927500",
                "074354.087500",
                "074355.247500",
                "074356.407500",
                "074357.567500",
                "074358.727500",
                "074359.887500",
                "074401.047500",
                "074402.207500",
                "074403.367500",
                "074404.527500",
                "074405.687500",
                "074406.847500",
                "074408.007500",
                "074409.167500",
                "074410.327500",
                "074411.487500",
                "074412.647500",
                "074413.807500",
                "074414.970000",
                "074416.130000",
                "074417.290000",
                "074418.450000",
                "074419.610000",
                "074420.770000",
                "074421.930000",
                "074423.090000",
                "074424.250000",
                "074425.410000",
                "074426.570000",
                "074427.730000",
                "074428.890000",
                "074430.050000",
                "074431.210000",
                "074432.370000",
                "074433.530000",
                "074434.690000",
                "074435.850000",
                "074437.010000",
                "074438.170000",
                "074439.330000",
                "074440.490000",
                "074441.650000",
                "074442.810000",
                "074443.970000",
                "074445.130000",
                "074446.290000",
                "074447.450000",
                "074448.610000",
                "074449.770000",
                "074450.930000",
                "074452.090000",
                "074453.250000",
                "074454.410000",
                "074455.570000",
                "074456.730000",
                "074457.890000",
                "074459.050000",
                "074500.210000",
                "074501.370000",
                "074502.530000",
                "074503.690000",
                "074504.850000",
                "074506.010000",
                "074507.170000",
                "074508.330000",
                "074509.490000",
                "074510.650000",
                "074511.810000",
                "074512.970000",
                "074514.130000",
                "074515.290000",
                "074516.450000",
                "074517.610000",
                "074518.770000",
                "074519.930000",
                "074521.090000",
                "074522.250000",
                "074523.410000",
                "074524.570000",
                "074525.730000",
                "074526.890000",
                "074528.050000",
                "074529.210000",
                "074530.370000",
                "074531.530000",
                "074532.690000",
                "074533.850000",
                "074535.010000",
                "074536.170000",
                "074537.330000",
                "074538.490000",
                "074539.650000",
                "074540.810000",
                "074541.970000",
                "074543.130000",
                "074544.290000",
                "074545.450000",
                "074546.610000",
                "074547.770000",
                "074548.930000",
                "074550.090000",
                "074551.250000",
                "074552.410000",
                "074553.570000",
                "074554.730000",
                "074555.890000",
                "074557.050000",
                "074558.210000",
                "074559.370000",
                "074600.530000",
                "074601.690000",
                "074602.850000",
                "074604.010000",
                "074605.170000",
                "074606.330000",
                "074607.490000",
                "074608.650000",
                "074609.810000",
                "074610.970000",
                "074612.130000",
                "074613.290000",
                "074614.450000",
                "074615.610000",
                "074616.770000",
                "074617.930000",
                "074619.090000",
                "074620.250000",
                "074621.410000",
                "074622.570000",
                "074623.730000",
                "074624.890000",
                "074626.050000",
                "074627.210000",
                "074628.370000",
                "074629.530000",
                "074630.690000",
                "074631.850000",
                "074633.010000",
                "074634.170000",
                "074635.330000",
                "074636.490000",
                "074637.650000",
                "074638.810000",
                "074639.970000",
                "074641.130000",
                "074642.290000",
                "074643.450000",
                "074644.610000",
                "074645.770000",
                "074646.930000",
                "074648.090000",
                "074649.250000",
                "074650.410000",
                "074651.570000",
                "074652.730000",
                "074653.890000",
                "074655.050000",
                "074656.210000",
                "074657.370000",
                "074658.530000",
                "074659.690000",
                "074700.850000",
                "074702.010000",
                "074703.170000",
                "074704.330000",
                "074705.490000",
                "074706.650000",
                "074707.810000",
                "074708.970000",
                "074710.130000",
                "074711.290000",
                "074712.450000",
                "074713.610000",
                "074714.770000",
                "074715.930000",
                "074717.090000",
                "074718.250000",
                "074719.410000",
                "074720.570000",
                "074721.730000",
                "074722.890000",
                "074724.050000",
                "074725.210000",
                "074726.370000",
                "074727.530000",
                "074728.690000",
                "074729.850000",
                "074731.010000",
                "074732.170000",
                "074733.330000",
                "074734.490000",
                "074735.650000",
                "074736.810000",
                "074737.970000",
                "074739.130000",
                "074740.290000",
                "074741.450000",
                "074742.610000",
                "074743.770000",
                "074744.930000",
                "074746.090000",
                "074747.250000",
                "074748.410000",
                "074749.570000",
                "074750.730000",
                "074751.890000",
                "074753.050000",
                "074754.210000",
                "074755.370000",
                "074756.530000",
                "074757.690000",
                "074758.850000",
                "074800.010000",
                "074801.170000",
                "074802.330000",
                "074803.490000",
                "074804.650000",
                "074805.810000",
                "074806.970000",
                "074808.130000",
                "074809.290000",
                "074810.450000",
                "074811.610000",
                "074812.770000",
                "074813.930000",
                "074815.090000",
                "074816.250000",
                "074817.410000",
                "074818.570000",
                "074819.730000",
                "074820.890000",
                "074822.050000",
                "074823.210000",
                "074824.370000",
                "074825.530000",
                "074826.690000",
                "074827.850000",
                "074829.010000",
                "074830.170000",
                "074831.330000",
                "074832.490000",
                "074833.650000",
                "074834.810000",
                "074835.970000",
                "074837.130000",
                "074838.290000",
                "074839.450000",
                "074840.610000",
                "074841.770000",
                "074842.930000",
                "074844.090000",
                "074845.250000",
                "074846.410000",
                "074847.570000",
                "074848.730000",
                "074849.890000",
                "074851.050000",
                "074852.210000",
                "074853.370000",
                "074854.530000",
                "074855.690000"
            ],
            "ContentTime": [
                "074259.734000",
                "074304.546000",
                "074304.546000",
                "074304.546000",
                "074304.562000",
                "074309.546000",
                "074309.546000",
                "074309.562000",
                "074309.562000",
                "074314.546000",
                "074314.546000",
                "074314.546000",
                "074314.562000",
                "074319.546000",
                "074319.562000",
                "074319.562000",
                "074324.546000",
                "074324.546000",
                "074324.546000",
                "074324.562000",
                "074324.562000",
                "074329.546000",
                "074329.562000",
                "074329.562000",
                "074334.546000",
                "074334.546000",
                "074334.546000",
                "074339.546000",
                "074339.562000",
                "074339.578000",
                "074339.578000",
                "074344.546000",
                "074344.546000",
                "074344.562000",
                "074344.562000",
                "074349.546000",
                "074349.546000",
                "074349.546000",
                "074354.546000",
                "074354.546000",
                "074354.562000",
                "074354.562000",
                "074354.562000",
                "074359.546000",
                "074359.546000",
                "074359.546000",
                "074404.546000",
                "074404.546000",
                "074404.546000",
                "074404.562000",
                "074409.546000",
                "074409.546000",
                "074409.546000",
                "074409.562000",
                "074414.546000",
                "074414.546000",
                "074414.546000",
                "074414.562000",
                "074419.546000",
                "074419.546000",
                "074419.562000",
                "074424.546000",
                "074424.546000",
                "074424.546000",
                "074424.578000",
                "074429.546000",
                "074429.546000",
                "074429.546000",
                "074429.562000",
                "074434.546000",
                "074434.562000",
                "074434.562000",
                "074439.546000",
                "074439.546000",
                "074439.562000",
                "074439.562000",
                "074444.546000",
                "074444.546000",
                "074444.546000",
                "074444.562000",
                "074449.546000",
                "074449.546000",
                "074449.546000",
                "074454.546000",
                "074454.546000",
                "074454.546000",
                "074454.562000",
                "074454.562000",
                "074459.546000",
                "074459.546000",
                "074459.546000",
                "074504.546000",
                "074504.562000",
                "074504.562000",
                "074504.562000",
                "074509.546000",
                "074509.546000",
                "074509.546000",
                "074514.546000",
                "074514.546000",
                "074514.546000",
                "074514.562000",
                "074519.546000",
                "074519.546000",
                "074519.578000",
                "074524.546000",
                "074524.546000",
                "074524.546000",
                "074524.562000",
                "074529.546000",
                "074529.546000",
                "074529.546000",
                "074529.562000",
                "074534.546000",
                "074534.562000",
                "074534.562000",
                "074539.546000",
                "074539.546000",
                "074539.562000",
                "074539.562000",
                "074544.546000",
                "074544.546000",
                "074544.562000",
                "074544.562000",
                "074549.546000",
                "074549.546000",
                "074549.562000",
                "074549.562000",
                "074554.546000",
                "074554.546000",
                "074554.546000",
                "074554.562000",
                "074559.546000",
                "074559.546000",
                "074559.546000",
                "074604.546000",
                "074604.562000",
                "074604.562000",
                "074604.562000",
                "074609.546000",
                "074609.546000",
                "074609.562000",
                "074609.562000",
                "074614.546000",
                "074614.562000",
                "074614.562000",
                "074614.562000",
                "074619.546000",
                "074619.562000",
                "074619.562000",
                "074619.562000",
                "074624.546000",
                "074624.546000",
                "074624.546000",
                "074629.546000",
                "074629.546000",
                "074629.546000",
                "074629.562000",
