{"AcquisitionMatrixPE": 96, "AcquisitionNumber": 1, "AcquisitionTime": "07:38:26.212500", "BaseResolution": 96, "BodyPartExamined": "BRAIN", "ConsistencyInfo": "N4_VD11D_LATEST_20110129", "ConversionSoftware": "dcm2niix", "ConversionSoftwareVersion": "v1.0.20210317", "DeviceSerialNumber": "45239", "DwellTime": 9.2e-06, "EchoNumber": 2, "EchoTime": 0.00738, "EchoTime1": 0.00492, "EchoTime2": 0.00738, "FlipAngle": 50, "ImageOrientationPatientDICOM": [0.997843, 0.0261132, 0.0602209, 0.0120012, 0.829412, -0.558509], "ImageType": ["ORIGINAL", "PRIMARY", "P", "ND", "PHASE"], "ImagingFrequency": 123.193, "InPlanePhaseEncodingDirectionDICOM": "COL", "InstitutionAddress": "E 24th St. 100,Austin,Southmiddle,US,78712", "InstitutionName": "Univ of Texas at Austin", "InstitutionalDepartmentName": "IRC", "MRAcquisitionType": "2D", "MagneticFieldStrength": 3, "Manufacturer": "Siemens", "ManufacturersModelName": "Skyra", "Modality": "MR", "PartialFourier": 1, "PatientPosition": "HFS", "PercentPhaseFOV": 100, "PercentSampling": 100, "PhaseEncodingDirection": "j-", "PhaseEncodingSteps": 96, "PhaseResolution": 1, "PixelBandwidth": 565, "ProcedureStepDescription": "Poldrack2^self-scanning", "ProtocolName": "gre_field_mapping", "PulseSequenceDetails": "%SiemensSeq%\\gre_field_mapping", "ReceiveCoilActiveElements": "HEA;HEP", "ReceiveCoilName": "Head_32", "ReconMatrixPE": 96, "RepetitionTime": 0.731, "SAR": 0.117033, "ScanningSequence": "GR", "SequenceName": "*fm2d2r", "SequenceVariant": "SP", "SeriesDescription": "gre_field_mapping", "SeriesNumber": 11, "ShimSetting": [-2780, 8054, -15444, 190, -208, 68, 85, -92], "SliceThickness": 2, "SliceTiming": [0.36719, 0, 0.375, 0.01562, 0.39062, 0.02344, 0.39844, 0.03906, 0.41406, 0.04688, 0.42188, 0.05469, 0.4375, 0.07031, 0.44531, 0.07812, 0.45312, 0.08594, 0.46875, 0.10156, 0.47656, 0.10938, 0.48438, 0.125, 0.5, 0.13281, 0.50781, 0.14062, 0.51562, 0.15625, 0.53125, 0.16406, 0.53906, 0.17969, 0.55469, 0.1875, 0.5625, 0.19531, 0.57031, 0.21094, 0.58594, 0.21875, 0.59375, 0.22656, 0.60938, 0.24219, 0.61719, 0.25, 0.625, 0.25781, 0.64062, 0.27344, 0.64844, 0.28125, 0.65625, 0.29688, 0.67188, 0.30469, 0.67969, 0.3125, 0.6875, 0.32812, 0.70312, 0.33594, 0.71094, 0.34375, 0.72656, 0.35938], "SoftwareVersions": "syngo MR D11", "SpacingBetweenSlices": 2.4, "StationName": "AWP45239", "TxRefAmp": 346.188, "dcmmeta_affine": [[-2.3906664848327637, 0.028752870857715607, 0.1548776626586914, 113.72819519042969], [-0.06256283819675446, 1.9871318340301514, -1.339263916015625, -67.71294403076172], [0.1442791372537613, 1.3380945920944214, 1.9855422973632812, -99.72728729248047], [0.0, 0.0, 0.0, 1.0]], "dcmmeta_reorient_transform": [[0.0, -1.0, 0.0, 95.0], [1.0, 0.0, 0.0, 0.0], [0.0, 0.0, -1.0, 67.0], [0.0, 0.0, 0.0, 1.0]], "dcmmeta_shape": [96, 96, 68], "dcmmeta_slice_dim": 2, "dcmmeta_version": 0.6, "global": {"const": {"AcquisitionMatrix": [96, 0, 0, 96], "AcquisitionNumber": 1, "AngioFlag": "N", "BitsAllocated": 16, "BitsStored": 12, "BodyPartExamined": "BRAIN", "Columns": 96, "EchoNumbers": 2, "EchoTime": 7.38, "EchoTrainLength": 0, "FlipAngle": 50.0, "HighBit": 11, "ImageOrientationPatient": [0.99784344954173, 0.02611318396881, 0.06022085875904, 0.01200119867418, 0.82941159981826, -0.5585090592974], "ImageType": ["ORIGINAL", "PRIMARY", "P", "ND"], "ImagedNucleus": "1H", "ImagingFrequency": 123.193339, "InPlanePhaseEncodingDirection": "COL", "MRAcquisitionType": "2D", "MagneticFieldStrength": 3.0, "Manufacturer": "SIEMENS", "ManufacturerModelName": "Skyra", "Modality": "MR", "NumberOfAverages": 1.0, "NumberOfPhaseEncodingSteps": 96, "PercentPhaseFieldOfView": 100.0, "PercentSampling": 100.0, "PerformedProcedureStepStartTime": "070954.593000", "PhotometricInterpretation": "MONOCHROME2", "PixelBandwidth": 565.0, "PixelRepresentation": 0, "PixelSpacing": [2.3958332538605, 2.3958332538605], "ProtocolName": "gre_field_mapping", "RepetitionTime": 731.0, "RescaleIntercept": -4096.0, "RescaleSlope": 2.0, "RescaleType": "US", "Rows": 96, "SAR": 0.11703301220166, "SamplesPerPixel": 1, "ScanningSequence": "GR", "SequenceName": "*fm2d2r", "SequenceVariant": "SP", "SeriesDescription": "gre_field_mapping", "SeriesNumber": 11, "SeriesTime": "074048.187000", "SliceThickness": 2.0, "SoftwareVersions": "syngo MR D11", "SpacingBetweenSlices": 2.4, "SpecificCharacterSet": "ISO_IR 100", "StudyID": "1", "StudyTime": "070954.562000", "TransmitCoilName": "Body", "VariableFlipAngleFlag": "N", "WindowCenterWidthExplanation": "Algo1", "dBdt": 0.0}, "slices": {"AcquisitionTime": ["073826.212500", "073825.847500", "073826.222500", "073825.857500", "073826.235000", "073825.867500", "073826.245000", "073825.880000", "073826.255000", "073825.890000", "073826.267500", "073825.900000", "073826.277500", "073825.912500", "073826.287500", "073825.922500", "073826.297500", "073825.932500", "073826.310000", "073825.945000", "073826.320000", "073825.955000", "073826.330000", "073825.965000", "073826.342500", "073825.975000", "073826.352500", "073825.987500", "073826.362500", "073825.997500", "073826.375000", "073826.007500", "073826.385000", "073826.020000", "073826.395000", "073826.030000", "073826.405000", "073826.040000", "073826.417500", "073826.052500", "073826.427500", "073826.062500", "073826.437500", "073826.072500", "073826.450000", "073826.082500", "073826.460000", "073826.095000", "073826.470000", "073826.105000", "073826.482500", "073826.115000", "073826.492500", "073826.127500", "073826.502500", "073826.137500", "073826.512500", "073826.147500", "073826.525000", "073826.160000", "073826.535000", "073826.170000", "073826.545000", "073826.180000", "073826.557500", "073826.190000", "073826.567500", "073826.202500"], "ContentTime": ["074048.265000", "074048.187000", "074048.265000", "074048.187000", "074048.265000", "074048.187000", "074048.265000", "074048.203000", "074048.265000", "074048.203000", "074048.265000", "074048.203000", "074048.281000", "074048.203000", "074048.281000", "074048.203000", "074048.281000", "074048.203000", "074048.281000", "074048.218000", "074048.281000", "074048.218000", "074048.281000", "074048.218000", "074048.296000", "074048.218000", "074048.296000", "074048.218000", "074048.296000", "074048.218000", "074048.296000", "074048.218000", "074048.296000", "074048.218000", "074048.296000", "074048.234000", "074048.296000", "074048.234000", "074048.296000", "074048.234000", "074048.296000", "074048.234000", "074048.312000", "074048.234000", "074048.312000", "074048.234000", "074048.312000", "074048.234000", "074048.312000", "074048.234000", "074048.312000", "074048.250000", "074048.312000", "074048.250000", "074048.312000", "074048.250000", "074048.312000", "074048.250000", "074048.328000", "074048.250000", "074048.328000", "074048.250000", "074048.328000", "074048.250000", "074048.328000", "074048.265000", "074048.328000", "074048.265000"], "CsaImage.GSWDDataType": ["predicted", "predicted", "predicted", "predicted", "predicted", "predicted", "measured", "predicted", "measured", "predicted", "measured", "predicted", "measured", "predicted", "measured", "predicted", "measured", "predicted", "measured", "predicted", "measured", "predicted", "measured", "predicted", "measured", "predicted", "measured", "predicted", "measured", "predicted", "measured", "predicted", "measured", "predicted", "measured", "predicted", "measured", "predicted", "measured", "predicted", "measured", "predicted", "measured", "predicted", "measured", "predicted", "measured", "predicted", "measured", "predicted", "measured", "predicted", "measured", "predicted", "measured", "predicted", "measured", "predicted", "measured", "predicted", "measured", "predicted", "measured", "predicted", "measured", "predicted", "measured", "predicted"], "CsaImage.ICE_Dims": ["X_2_1_1_1_1_1_35_1_1_1_1_320", "X_2_1_1_1_1_1_1_1_1_2_1_320", "X_2_1_1_1_1_1_36_1_1_3_1_320", "X_2_1_1_1_1_1_2_1_1_4_1_320", "X_2_1_1_1_1_1_37_1_1_5_1_320", "X_2_1_1_1_1_1_3_1_1_6_1_320", "X_2_1_1_1_1_1_38_1_1_7_1_320", "X_2_1_1_1_1_1_4_1_1_8_1_320", "X_2_1_1_1_1_1_39_1_1_9_1_320", "X_2_1_1_1_1_1_5_1_1_10_1_320", "X_2_1_1_1_1_1_40_1_1_11_1_320", "X_2_1_1_1_1_1_6_1_1_12_1_320", "X_2_1_1_1_1_1_41_1_1_13_1_320", "X_2_1_1_1_1_1_7_1_1_14_1_320", "X_2_1_1_1_1_1_42_1_1_15_1_320", "X_2_1_1_1_1_1_8_1_1_16_1_320", "X_2_1_1_1_1_1_43_1_1_17_1_320", "X_2_1_1_1_1_1_9_1_1_18_1_320", "X_2_1_1_1_1_1_44_1_1_19_1_320", "X_2_1_1_1_1_1_10_1_1_20_1_320", "X_2_1_1_1_1_1_45_1_1_21_1_320", "X_2_1_1_1_1_1_11_1_1_22_1_320", "X_2_1_1_1_1_1_46_1_1_23_1_320", "X_2_1_1_1_1_1_12_1_1_24_1_320", "X_2_1_1_1_1_1_47_1_1_25_1_320", "X_2_1_1_1_1_1_13_1_1_26_1_320", "X_2_1_1_1_1_1_48_1_1_27_1_320", "X_2_1_1_1_1_1_14_1_1_28_1_320", "X_2_1_1_1_1_1_49_1_1_29_1_320", "X_2_1_1_1_1_1_15_1_1_30_1_320", "X_2_1_1_1_1_1_50_1_1_31_1_320", "X_2_1_1_1_1_1_16_1_1_32_1_320", "X_2_1_1_1_1_1_51_1_1_33_1_320", "X_2_1_1_1_1_1_17_1_1_34_1_320", "X_2_1_1_1_1_1_52_1_1_35_1_320", "X_2_1_1_1_1_1_18_1_1_36_1_320", "X_2_1_1_1_1_1_53_1_1_37_1_320", "X_2_1_1_1_1_1_19_1_1_38_1_320", "X_2_1_1_1_1_1_54_1_1_39_1_320", "X_2_1_1_1_1_1_20_1_1_40_1_320", "X_2_1_1_1_1_1_55_1_1_41_1_320", "X_2_1_1_1_1_1_21_1_1_42_1_320", "X_2_1_1_1_1_1_56_1_1_43_1_320", "X_2_1_1_1_1_1_22_1_1_44_1_320", "X_2_1_1_1_1_1_57_1_1_45_1_320", "X_2_1_1_1_1_1_23_1_1_46_1_320", "X_2_1_1_1_1_1_58_1_1_47_1_320", "X_2_1_1_1_1_1_24_1_1_48_1_320", "X_2_1_1_1_1_1_59_1_1_49_1_320", "X_2_1_1_1_1_1_25_1_1_50_1_320", "X_2_1_1_1_1_1_60_1_1_51_1_320", "X_2_1_1_1_1_1_26_1_1_52_1_320", "X_2_1_1_1_1_1_61_1_1_53_1_320", "X_2_1_1_1_1_1_27_1_1_54_1_320", "X_2_1_1_1_1_1_62_1_1_55_1_320", "X_2_1_1_1_1_1_28_1_1_56_1_320", "X_2_1_1_1_1_1_63_1_1_57_1_320", "X_2_1_1_1_1_1_29_1_1_58_1_320", "X_2_1_1_1_1_1_64_1_1_59_1_320", "X_2_1_1_1_1_1_30_1_1_60_1_320", "X_2_1_1_1_1_1_65_1_1_61_1_320", "X_2_1_1_1_1_1_31_1_1_62_1_320", "X_2_1_1_1_1_1_66_1_1_63_1_320", "X_2_1_1_1_1_1_32_1_1_64_1_320", "X_2_1_1_1_1_1_67_1_1_65_1_320", "X_2_1_1_1_1_1_33_1_1_66_1_320", "X_2_1_1_1_1_1_68_1_1_67_1_320", "X_2_1_1_1_1_1_34_1_1_68_1_320"], "CsaImage.ProtocolSliceNumber": [0, 1, 2, 3, 4, 5, 6, 7, 8, 9, 10, 11, 12, 13, 14, 15, 16, 17, 18, 19, 20, 21, 22, 23, 24, 25, 26, 27, 28, 29, 30, 31, 32, 33, 34, 35, 36, 37, 38, 39, 40, 41, 42, 43, 44, 45, 46, 47, 48, 49, 50, 51, 52, 53, 54, 55, 56, 57, 58, 59, 60, 61, 62, 63, 64, 65, 66, 67], "CsaImage.RFSWDDataType": ["predicted", "predicted", "predicted", "predicted", "measured", "predicted", "measured", "predicted", "measured", "predicted", "measured", "predicted", "measured", "predicted", "measured", "predicted", "measured", "predicted", "measured", "predicted", "measured", "predicted", "measured", "predicted", "measured", "predicted", "measured", "predicted", "measured", "predicted", "measured", "predicted", "measured", "predicted", "measured", "predicted", "measured", "predicted", "measured", "predicted", "measured", "predicted", "measured", "predicted", "measured", "predicted", "measured", "predicted", "measured", "predicted", "measured", "predicted", "measured", "predicted", "measured", "predicted", "measured", "predicted", "measured", "predicted", "measured", "predicted", "measured", "predicted", "measured", "predicted", "measured", "predicted"], "CsaImage.SlicePosition_PCS": [[-116.45972384, -121.06469296, 27.39165549], [-116.61460138, -119.72542904, 29.37719779], [-116.76947893, -118.38616322, 31.36274008], [-116.92435647, -117.04689739, 33.34828238], [-117.07923401, -115.70763157, 35.33382659], [-117.2341115, -114.36836575, 37.31936888], [-117.38898904, -113.02909992, 39.30491118], [-117.54386658, -111.68983505, 41.29045539], [-117.69874413, -110.35056923, 43.27599768], [-117.85362167, -109.01130341, 45.26154093], [-118.00849922, -107.67203758, 47.24708323], [-118.16337688, -106.33277224, 49.23262648], [-118.3182543, -104.99350641, 51.21816926], [-118.47313196, -103.65424107, 53.20371251], [-118.62800939, -102.31497548, 55.18925528], [-118.78288705, -100.9757099, 57.1747981], [-118.93776448, -99.63644419, 59.16034095], [-119.09264214, -98.29717862, 61.14588384], [-119.24751956, -96.95791302, 63.13142686], [-119.40239699, -95.61864732, 65.11696963], [-119.55727465, -94.27938173, 67.10251288], [-119.71215207, -92.94011639, 69.08805518], [-119.86702974, -91.60085056, 71.07359843], [-120.02190716, -90.26158474, 73.05914168], [-120.17678459, -88.92231987, 75.04468398], [-120.33166225, -87.58305405, 77.03022627], [-120.48653991, -86.24378822, 79.01577048], [-120.64141757, -84.9045224, 81.00131278], [-120.79629476, -83.56525658, 82.98685507], [-120.95117242, -82.22599171, 84.97239928], [-121.10605008, -80.88672589, 86.95794158], [-121.26092775, -79.54746006, 88.94348387], [-121.41580493, -78.20819424, 90.92902617], [-121.5706826, -76.86892841, 92.91456847], [-121.72556026, -75.52966259, 94.90011458], [-121.88043792, -74.19039868, 96.88565688], [-122.03531511, -72.85113285, 98.87119918], [-122.19019277, -71.51186703, 100.85674147], [-122.34507043, -70.17260121, 102.84228377], [-122.49994809, -68.83333538, 104.82782607], [-122.65482528, -67.49406956, 106.81337218], [-122.80970294, -66.15480564, 108.79891448], [-122.96458061, -64.81553791, 110.78445677], [-123.11945827, -63.476274, 112.76999907], [-123.27433545, -62.13700627, 114.75554137], [-123.42921312, -60.79774235, 116.74108367], [-123.58409078, -59.45847462, 118.72662978], [-123.73896844, -58.1192107, 120.71217208], [-123.89384563, -56.77994679, 122.69771056], [-124.04872329, -55.44067906, 124.68326048], [-124.20360095, -54.10141514, 126.66880278], [-124.35847862, -52.76214741, 128.65434508], [-124.51335628, -51.42288349, 130.63988738], [-124.66823299, -50.08361576, 132.62542967], [-124.82311065, -48.74435185, 134.61097197], [-124.97798831, -47.40508412, 136.59651427], [-125.13286598, -46.0658202, 138.58205657], [-125.28774364, -44.72655628, 140.56759886], [-125.4426213, -43.38728855, 142.55314116], [-125.59749896, -42.04802464, 144.53868346], [-125.75237663, -40.70875691, 146.52422576], [-125.90725334, -39.36949299, 148.50976805], [-126.062131, -38.03022526, 150.49531798], [-126.21700866, -36.69096134, 152.48086028], [-126.37188632, -35.35169743, 154.46640257], [-126.52676399, -34.0124297, 156.45194487], [-126.68164165, -32.67316578, 158.43748717], [-126.83651931, -31.33390186, 160.42302947]], "CsaImage.TimeAfterStart": [1.0975, 0.7325, 1.11, 0.745, 1.12, 0.755, 1.13, 0.765, 1.1425, 0.775, 1.1525, 0.7875, 1.1625, 0.7975, 1.175, 0.8075, 1.185, 0.82, 1.195, 0.83, 1.205, 0.84, 1.2175, 0.8525, 1.2275, 0.8625, 1.2375, 0.8725, 1.25, 0.8825, 1.26, 0.895, 1.27, 0.905, 1.2825, 0.915, 1.2925, 0.9275, 1.3025, 0.9375, 1.3125, 0.9475, 1.325, 0.96, 1.335, 0.97, 1.345, 0.98, 1.3575, 0.99, 1.3675, 1.0025, 1.3775, 1.0125, 1.39, 1.0225, 1.4, 1.035, 1.41, 1.045, 1.42, 1.055, 1.4325, 1.0675, 1.4425, 1.0775, 1.4525, 1.0875], "ImagePositionPatient": [[-116.45972384033, -121.06469295654, 27.3916554891], [-116.61460138378, -119.72542904052, 29.377197786463], [-116.76947892723, -118.38616321716, 31.362740083826], [-116.92435647068, -117.0468973938, 33.34828238119], [-117.07923401413, -115.70763157043, 35.333826585901], [-117.23411149797, -114.36836574707, 37.319368883265], [-117.38898904142, -113.0290999237, 39.304911180628], [-117.54386658487, -111.68983505401, 41.29045538534], [-117.69874412832, -110.35056923065, 43.275997682703], [-117.85362167177, -109.01130340728, 45.261540933741], [-118.00849921522, -107.67203758392, 47.247083231104], [-118.16337687788, -106.33277223739, 49.232626482142], [-118.31825430212, -104.99350641403, 51.218169256342], [-118.47313196478, -103.6542410675, 53.20371250738], [-118.62800938902, -102.31497548256, 55.18925528158], [-118.78288705168, -100.97570989761, 57.174798100484], [-118.93776447592, -99.636444193455, 59.16034094919], [-119.09264213858, -98.29717862341, 61.1458838426], [-119.24751956282, -96.957913023564, 63.131426855219], [-119.40239698706, -95.618647319409, 65.11696962942], [-119.55727464972, -94.279381734463, 67.102512880457], [-119.71215207396, -92.940116387936, 69.08805517782], [-119.86702973661, -91.600850564572, 71.073598428858], [-120.02190716085, -90.261584741207, 73.059141679896], [-120.17678458509, -88.922319871517, 75.044683977259], [-120.33166224775, -87.583054048153, 77.030226274622], [-120.48653991041, -86.243788224789, 79.015770479334], [-120.64141757307, -84.904522401425, 81.001312776697], [-120.79629475889, -83.56525657806, 82.986855074061], [-120.95117242155, -82.22599170837, 84.972399278773], [-121.10605008421, -80.886725885006, 86.957941576136], [-121.26092774687, -79.547460061642, 88.943483873499], [-121.41580493269, -78.208194238278, 90.929026170862], [-121.57068259535, -76.868928414913, 92.914568468226], [-121.72556025801, -75.529662591549, 94.900114580286], [-121.88043792067, -74.190398675534, 96.88565687765], [-122.03531510649, -72.851132852169, 98.871199175013], [-122.19019276915, -71.511867028805, 100.85674147238], [-122.3450704318, -70.172601205441, 102.84228376974], [-122.49994809446, -68.833335382076, 104.8278260671], [-122.65482528028, -67.494069558712, 106.81337217916], [-122.80970294294, -66.154805642697, 108.79891447653], [-122.9645806056, -64.815537911984, 110.78445677389], [-123.11945826826, -63.476273995968, 112.76999907125], [-123.27433545408, -62.137006265255, 114.75554136862], [-123.42921311674, -60.79774234924, 116.74108366598], [-123.5840907794, -59.458474618527, 118.72662977804], [-123.73896844206, -58.119210702511, 120.7121720754], [-123.89384562788, -56.779946786495, 122.69771055807], [-124.04872329054, -55.440679055783, 124.68326048483], [-124.2036009532, -54.101415139767, 126.66880278219], [-124.35847861586, -52.762147409054, 128.65434507955], [-124.51335627851, -51.422883493038, 130.63988737692], [-124.6682329875, -50.083615762326, 132.62542967428], [-124.82311065016, -48.74435184631, 134.61097197164], [-124.97798831282, -47.405084115597, 136.59651426901], [-125.13286597548, -46.065820199581, 138.58205656637], [-125.28774363813, -44.726556283566, 140.56759886373], [-125.44262130079, -43.387288552853, 142.5531411611], [-125.59749896345, -42.048024636837, 144.53868345846], [-125.75237662611, -40.708756906124, 146.52422575582], [-125.90725333509, -39.369492990109, 148.50976805319], [-126.06213099775, -38.030225259396, 150.49531797994], [-126.21700866041, -36.69096134338, 152.48086027731], [-126.37188632307, -35.351697427365, 154.46640257467], [-126.52676398573, -34.012429696652, 156.45194487203], [-126.68164164839, -32.673165780636, 158.4374871694], [-126.83651931105, -31.33390186462, 160.42302946676]], "InstanceCreationTime": ["074048.265000", "074048.187000", "074048.265000", "074048.187000", "074048.265000", "074048.187000", "074048.265000", "074048.203000", "074048.265000", "074048.203000", "074048.265000", "074048.203000", "074048.281000", "074048.203000", "074048.281000", "074048.203000", "074048.281000", "074048.203000", "074048.281000", "074048.218000", "074048.281000", "074048.218000", "074048.281000", "074048.218000", "074048.296000", "074048.218000", "074048.296000", "074048.218000", "074048.296000", "074048.218000", "074048.296000", "074048.218000", "074048.296000", "074048.218000", "074048.296000", "074048.234000", "074048.296000", "074048.234000", "074048.296000", "074048.234000", "074048.296000", "074048.234000", "074048.312000", "074048.234000", "074048.312000", "074048.234000", "074048.312000", "074048.234000", "074048.312000", "074048.234000", "074048.312000", "074048.250000", "074048.312000", "074048.250000", "074048.312000", "074048.250000", "074048.312000", "074048.250000", "074048.328000", "074048.250000", "074048.328000", "074048.250000", "074048.328000", "074048.250000", "074048.328000", "074048.265000", "074048.328000", "074048.265000"], "InstanceNumber": [1, 2, 3, 4, 5, 6, 7, 8, 9, 10, 11, 12, 13, 14, 15, 16, 17, 18, 19, 20, 21, 22, 23, 24, 25, 26, 27, 28, 29, 30, 31, 32, 33, 34, 35, 36, 37, 38, 39, 40, 41, 42, 43, 44, 45, 46, 47, 48, 49, 50, 51, 52, 53, 54, 55, 56, 57, 58, 59, 60, 61, 62, 63, 64, 65, 66, 67, 68], "LargestImagePixelValue": [4092, 4094, 4094, 4094, 4093, 4094, 4094, 4094, 4094, 4093, 4094, 4094, 4094, 4093, 4094, 4094, 4093, 4094, 4094, 4093, 4094, 4091, 4093, 4094, 4094, 4092, 4089, 4092, 4094, 4093, 4093, 4094, 4094, 4094, 4091, 4091, 4094, 4093, 4092, 4089, 4094, 4091, 4094, 4094, 4093, 4094, 4093, 4092, 4094, 4093, 4094, 4094, 4093, 4094, 4094, 4091, 4093, 4093, 4094, 4094, 4094, 4094, 4093, 4094, 4093, 4094, 4093, 4094], "SliceLocation": [-37.380612088427, -34.980613524922, -32.580613897065, -30.180614269208, -27.780613063383, -25.380613439372, -22.980613811515, -20.580613137866, -18.180613510009, -15.780613093168, -13.380613465311, -10.980613306865, -8.5806132922085, -6.1806131337627, -3.7806132521505, -1.3806133181689, 1.0193866916047, 3.4193866789104, 5.8193867660838, 8.2193867142181, 10.619387005708, 13.019386359784, 15.419386784318, 17.819387193466, 20.219386281454, 22.619385917004, 25.019387130522, 27.419386766072, 29.819386370851, 32.219387052193, 34.619386687743, 37.019386323293, 39.419385928071, 41.819385563621, 44.219388355107, 46.619386926304, 49.019386531083, 51.419386166633, 53.819385802183, 56.219385437733, 58.619388198447, 61.019386769645, 63.419387469548, 65.819386040745, 68.219386709876, 70.619385281074, 73.019389136912, 75.419387708109, 77.8193830926, 80.219390104374, 82.619388675571, 85.019389375474, 87.419387946671, 89.819388585031, 92.219387156228, 94.619387856131, 97.019386427329, 99.419384998526, 101.81938569843, 104.21938426963, 106.61938496953, 109.01938347918, 111.41939049096, 113.81938906215, 116.21938763335, 118.61938833325, 121.01938690445, 123.41938547565], "SmallestImagePixelValue": [2, 0, 1, 1, 3, 2, 0, 0, 0, 1, 1, 0, 1, 0, 0, 1, 0, 4, 0, 0, 0, 3, 3, 0, 0, 1, 1, 0, 2, 0, 4, 2, 3, 3, 0, 1, 0, 3, 2, 1, 0, 4, 4, 0, 3, 4, 0, 2, 5, 3, 0, 1, 0, 2, 2, 1, 0, 2, 1, 1, 0, 2, 0, 0, 0, 0, 0, 0], "WindowCenter": [-188.0, -276.0, -284.0, -272.0, -396.0, -330.0, -454.0, -554.0, -580.0, -564.0, -560.0, -600.0, -580.0, -534.0, -506.0, -524.0, -500.0, -498.0, -474.0, -464.0, -454.0, -434.0, -422.0, -358.0, -374.0, -316.0, -304.0, -246.0, -228.0, -236.0, -282.0, -276.0, -238.0, -182.0, -192.0, -202.0, -196.0, -170.0, -148.0, -140.0, -184.0, -194.0, -174.0, -198.0, -198.0, -214.0, -274.0, -254.0, -240.0, -254.0, -236.0, -228.0, -228.0, -264.0, -294.0, -306.0, -288.0, -312.0, -364.0, -350.0, -368.0, -424.0, -430.0, -416.0, -458.0, -486.0, -456.0, -480.0], "WindowWidth": [6236.0, 6226.0, 6160.0, 6074.0, 5854.0, 6044.0, 5554.0, 5034.0, 4940.0, 4902.0, 4866.0, 4862.0, 4790.0, 4766.0, 4740.0, 4710.0, 4622.0, 4550.0, 4496.0, 4476.0, 4444.0, 4472.0, 4474.0, 4414.0, 4302.0, 4214.0, 4190.0, 4172.0, 4080.0, 4082.0, 4060.0, 4052.0, 4014.0, 4056.0, 4080.0, 4140.0, 4188.0, 4200.0, 4228.0, 4206.0, 4256.0, 4260.0, 4244.0, 4272.0, 4252.0, 4284.0, 4284.0, 4300.0, 4308.0, 4286.0, 4300.0, 4338.0, 4300.0, 4336.0, 4354.0, 4380.0, 4440.0, 4504.0, 4506.0, 4568.0, 4646.0, 4740.0, 4788.0, 4872.0, 4904.0, 4918.0, 4972.0, 4980.0]}}}