{"AcquisitionMatrixPE": 96, "AcquisitionNumber": 1, "AcquisitionTime": "07:32:35.180000", "BaseResolution": 96, "BodyPartExamined": "BRAIN", "ConsistencyInfo": "N4_VD11D_LATEST_20110129", "ConversionSoftware": "dcm2niix", "ConversionSoftwareVersion": "v1.0.20210317", "DeviceSerialNumber": "45239", "DwellTime": 9.2e-06, "EchoNumber": 2, "EchoTime": 0.00738, "EchoTime1": 0.00492, "EchoTime2": 0.00738, "FlipAngle": 50, "ImageOrientationPatientDICOM": [0.999925, -0.0104131, 0.00650683, 0.0122789, 0.847984, -0.529879], "ImageType": ["ORIGINAL", "PRIMARY", "P", "ND", "PHASE"], "ImagingFrequency": 123.193, "InPlanePhaseEncodingDirectionDICOM": "COL", "InstitutionAddress": "E 24th St. 100,Austin,Southmiddle,US,78712", "InstitutionName": "Univ of Texas at Austin", "InstitutionalDepartmentName": "IRC", "MRAcquisitionType": "2D", "MagneticFieldStrength": 3, "Manufacturer": "Siemens", "ManufacturersModelName": "Skyra", "Modality": "MR", "PartialFourier": 1, "PatientPosition": "HFS", "PercentPhaseFOV": 100, "PercentSampling": 100, "PhaseEncodingDirection": "j-", "PhaseEncodingSteps": 96, "PhaseResolution": 1, "PixelBandwidth": 565, "ProcedureStepDescription": "Poldrack2^self-scanning", "ProtocolName": "gre_field_mapping", "PulseSequenceDetails": "%SiemensSeq%\\gre_field_mapping", "ReceiveCoilActiveElements": "HEA;HEP", "ReceiveCoilName": "Head_32", "ReconMatrixPE": 96, "RepetitionTime": 0.731, "SAR": 0.128531, "ScanningSequence": "GR", "SequenceName": "*fm2d2r", "SequenceVariant": "SP", "SeriesDescription": "gre_field_mapping", "SeriesNumber": 11, "ShimSetting": [-2781, 8044, -15418, 134, -192, 29, 202, -101], "SliceThickness": 2, "SliceTiming": [0.36719, 0, 0.375, 0.01562, 0.39062, 0.02344, 0.39844, 0.03125, 0.40625, 0.04688, 0.42188, 0.05469, 0.42969, 0.0625, 0.44531, 0.07812, 0.45312, 0.08594, 0.46094, 0.09375, 0.47656, 0.10938, 0.48438, 0.11719, 0.49219, 0.13281, 0.50781, 0.14062, 0.51562, 0.15625, 0.53125, 0.16406, 0.53906, 0.17188, 0.54688, 0.17969, 0.5625, 0.19531, 0.57031, 0.20312, 0.58594, 0.21875, 0.59375, 0.22656, 0.60156, 0.23438, 0.60938, 0.25, 0.625, 0.25781, 0.63281, 0.27344, 0.64844, 0.28125, 0.65625, 0.28906, 0.66406, 0.30469, 0.67969, 0.3125, 0.6875, 0.32031, 0.70312, 0.33594, 0.71094, 0.34375, 0.71875, 0.35156], "SoftwareVersions": "syngo MR D11", "SpacingBetweenSlices": 2.4, "StationName": "AWP45239", "TxRefAmp": 350.536, "dcmmeta_affine": [[-2.3956525325775146, 0.029418237507343292, 0.0, 116.4615707397461], [0.02494809404015541, 2.0316286087036133, -1.2718048095703125, -76.24979400634766], [0.015589267946779728, 1.2695024013519287, 2.035308837890625, -76.76860809326172], [0.0, 0.0, 0.0, 1.0]], "dcmmeta_reorient_transform": [[0.0, -1.0, 0.0, 95.0], [1.0, 0.0, 0.0, 0.0], [0.0, 0.0, -1.0, 67.0], [0.0, 0.0, 0.0, 1.0]], "dcmmeta_shape": [96, 96, 68], "dcmmeta_slice_dim": 2, "dcmmeta_version": 0.6, "global": {"const": {"AcquisitionMatrix": [96, 0, 0, 96], "AcquisitionNumber": 1, "AngioFlag": "N", "BitsAllocated": 16, "BitsStored": 12, "BodyPartExamined": "BRAIN", "Columns": 96, "EchoNumbers": 2, "EchoTime": 7.38, "EchoTrainLength": 0, "FlipAngle": 50.0, "HighBit": 11, "ImageOrientationPatient": [0.99992461126195, -0.0104131175776, 0.00650682525982, 0.01227891659094, 0.84798416844705, -0.5298793053805], "ImageType": ["ORIGINAL", "PRIMARY", "P", "ND"], "ImagedNucleus": "1H", "ImagingFrequency": 123.193284, "InPlanePhaseEncodingDirection": "COL", "MRAcquisitionType": "2D", "MagneticFieldStrength": 3.0, "Manufacturer": "SIEMENS", "ManufacturerModelName": "Skyra", "Modality": "MR", "NumberOfAverages": 1.0, "NumberOfPhaseEncodingSteps": 96, "PercentPhaseFieldOfView": 100.0, "PercentSampling": 100.0, "PerformedProcedureStepStartTime": "070547.000000", "PhotometricInterpretation": "MONOCHROME2", "PixelBandwidth": 565.0, "PixelRepresentation": 0, "PixelSpacing": [2.3958332538605, 2.3958332538605], "ProtocolName": "gre_field_mapping", "RepetitionTime": 731.0, "RescaleIntercept": -4096.0, "RescaleSlope": 2.0, "RescaleType": "US", "Rows": 96, "SAR": 0.12853133328213, "SamplesPerPixel": 1, "ScanningSequence": "GR", "SequenceName": "*fm2d2r", "SequenceVariant": "SP", "SeriesDescription": "gre_field_mapping", "SeriesNumber": 11, "SeriesTime": "073922.687000", "SliceThickness": 2.0, "SoftwareVersions": "syngo MR D11", "SpacingBetweenSlices": 2.4, "SpecificCharacterSet": "ISO_IR 100", "StudyID": "1", "StudyTime": "070546.953000", "TransmitCoilName": "Body", "VariableFlipAngleFlag": "N", "WindowCenterWidthExplanation": "Algo1", "dBdt": 0.0}, "slices": {"AcquisitionTime": ["073235.180000", "073234.812500", "073235.190000", "073234.825000", "073235.200000", "073234.835000", "073235.210000", "073234.845000", "073235.222500", "073234.857500", "073235.232500", "073234.867500", "073235.242500", "073234.877500", "073235.255000", "073234.887500", "073235.265000", "073234.900000", "073235.275000", "073234.910000", "073235.287500", "073234.920000", "073235.297500", "073234.932500", "073235.307500", "073234.942500", "073235.317500", "073234.952500", "073235.330000", "073234.965000", "073235.340000", "073234.975000", "073235.350000", "073234.985000", "073235.362500", "073234.995000", "073235.372500", "073235.007500", "073235.382500", "073235.017500", "073235.395000", "073235.027500", "073235.405000", "073235.040000", "073235.415000", "073235.050000", "073235.425000", "073235.060000", "073235.437500", "073235.072500", "073235.447500", "073235.082500", "073235.457500", "073235.092500", "073235.470000", "073235.102500", "073235.480000", "073235.115000", "073235.490000", "073235.125000", "073235.502500", "073235.135000", "073235.512500", "073235.147500", "073235.522500", "073235.157500", "073235.532500", "073235.167500"], "ContentTime": ["073922.765000", "073922.687000", "073922.765000", "073922.687000", "073922.765000", "073922.687000", "073922.765000", "073922.687000", "073922.765000", "073922.687000", "073922.781000", "073922.687000", "073922.781000", "073922.703000", "073922.781000", "073922.703000", "073922.781000", "073922.703000", "073922.781000", "073922.703000", "073922.781000", "073922.703000", "073922.781000", "073922.703000", "073922.812000", "073922.703000", "073922.812000", "073922.703000", "073922.812000", "073922.703000", "073922.812000", "073922.718000", "073922.812000", "073922.718000", "073922.812000", "073922.718000", "073922.812000", "073922.718000", "073922.828000", "073922.718000", "073922.828000", "073922.718000", "073922.828000", "073922.718000", "073922.828000", "073922.718000", "073922.828000", "073922.718000", "073922.843000", "073922.750000", "073922.843000", "073922.750000", "073922.843000", "073922.750000", "073922.843000", "073922.750000", "073922.843000", "073922.750000", "073922.843000", "073922.750000", "073922.859000", "073922.750000", "073922.921000", "073922.765000", "073922.921000", "073922.765000", "073922.921000", "073922.765000"], "CsaImage.ICE_Dims": ["X_2_1_1_1_1_1_35_1_1_1_1_625", "X_2_1_1_1_1_1_1_1_1_2_1_625", "X_2_1_1_1_1_1_36_1_1_3_1_625", "X_2_1_1_1_1_1_2_1_1_4_1_625", "X_2_1_1_1_1_1_37_1_1_5_1_625", "X_2_1_1_1_1_1_3_1_1_6_1_625", "X_2_1_1_1_1_1_38_1_1_7_1_625", "X_2_1_1_1_1_1_4_1_1_8_1_625", "X_2_1_1_1_1_1_39_1_1_9_1_625", "X_2_1_1_1_1_1_5_1_1_10_1_625", "X_2_1_1_1_1_1_40_1_1_11_1_625", "X_2_1_1_1_1_1_6_1_1_12_1_625", "X_2_1_1_1_1_1_41_1_1_13_1_625", "X_2_1_1_1_1_1_7_1_1_14_1_625", "X_2_1_1_1_1_1_42_1_1_15_1_625", "X_2_1_1_1_1_1_8_1_1_16_1_625", "X_2_1_1_1_1_1_43_1_1_17_1_625", "X_2_1_1_1_1_1_9_1_1_18_1_625", "X_2_1_1_1_1_1_44_1_1_19_1_625", "X_2_1_1_1_1_1_10_1_1_20_1_625", "X_2_1_1_1_1_1_45_1_1_21_1_625", "X_2_1_1_1_1_1_11_1_1_22_1_625", "X_2_1_1_1_1_1_46_1_1_23_1_625", "X_2_1_1_1_1_1_12_1_1_24_1_625", "X_2_1_1_1_1_1_47_1_1_25_1_625", "X_2_1_1_1_1_1_13_1_1_26_1_625", "X_2_1_1_1_1_1_48_1_1_27_1_625", "X_2_1_1_1_1_1_14_1_1_28_1_625", "X_2_1_1_1_1_1_49_1_1_29_1_625", "X_2_1_1_1_1_1_15_1_1_30_1_625", "X_2_1_1_1_1_1_50_1_1_31_1_625", "X_2_1_1_1_1_1_16_1_1_32_1_625", "X_2_1_1_1_1_1_51_1_1_33_1_625", "X_2_1_1_1_1_1_17_1_1_34_1_625", "X_2_1_1_1_1_1_52_1_1_35_1_625", "X_2_1_1_1_1_1_18_1_1_36_1_625", "X_2_1_1_1_1_1_53_1_1_37_1_625", "X_2_1_1_1_1_1_19_1_1_38_1_625", "X_2_1_1_1_1_1_54_1_1_39_1_625", "X_2_1_1_1_1_1_20_1_1_40_1_625", "X_2_1_1_1_1_1_55_1_1_41_1_625", "X_2_1_1_1_1_1_21_1_1_42_1_625", "X_2_1_1_1_1_1_56_1_1_43_1_625", "X_2_1_1_1_1_1_22_1_1_44_1_625", "X_2_1_1_1_1_1_57_1_1_45_1_625", "X_2_1_1_1_1_1_23_1_1_46_1_625", "X_2_1_1_1_1_1_58_1_1_47_1_625", "X_2_1_1_1_1_1_24_1_1_48_1_625", "X_2_1_1_1_1_1_59_1_1_49_1_625", "X_2_1_1_1_1_1_25_1_1_50_1_625", "X_2_1_1_1_1_1_60_1_1_51_1_625", "X_2_1_1_1_1_1_26_1_1_52_1_625", "X_2_1_1_1_1_1_61_1_1_53_1_625", "X_2_1_1_1_1_1_27_1_1_54_1_625", "X_2_1_1_1_1_1_62_1_1_55_1_625", "X_2_1_1_1_1_1_28_1_1_56_1_625", "X_2_1_1_1_1_1_63_1_1_57_1_625", "X_2_1_1_1_1_1_29_1_1_58_1_625", "X_2_1_1_1_1_1_64_1_1_59_1_625", "X_2_1_1_1_1_1_30_1_1_60_1_625", "X_2_1_1_1_1_1_65_1_1_61_1_625", "X_2_1_1_1_1_1_31_1_1_62_1_625", "X_2_1_1_1_1_1_66_1_1_63_1_625", "X_2_1_1_1_1_1_32_1_1_64_1_625", "X_2_1_1_1_1_1_67_1_1_65_1_625", "X_2_1_1_1_1_1_33_1_1_66_1_625", "X_2_1_1_1_1_1_68_1_1_67_1_625", "X_2_1_1_1_1_1_34_1_1_68_1_625"], "CsaImage.ProtocolSliceNumber": [0, 1, 2, 3, 4, 5, 6, 7, 8, 9, 10, 11, 12, 13, 14, 15, 16, 17, 18, 19, 20, 21, 22, 23, 24, 25, 26, 27, 28, 29, 30, 31, 32, 33, 34, 35, 36, 37, 38, 39, 40, 41, 42, 43, 44, 45, 46, 47, 48, 49, 50, 51, 52, 53, 54, 55, 56, 57, 58, 59, 60, 61, 62, 63, 64, 65, 66, 67], "CsaImage.SlicePosition_PCS": [[-119.25629972, -116.75502434, 43.83368817], [-119.25629972, -115.48321953, 45.86900463], [-119.25629972, -114.21141282, 47.90432015], [-119.25629972, -112.9396061, 49.93963471], [-119.25629972, -111.66780034, 51.97495022], [-119.25629972, -110.39599362, 54.01026621], [-119.25629972, -109.12418786, 56.04558125], [-119.25629972, -107.85238209, 58.080897], [-119.25629972, -106.58057538, 60.11621234], [-119.25629972, -105.30876961, 62.15152779], [-119.25629972, -104.0369629, 64.1868433], [-119.25629972, -102.76515666, 66.22215882], [-119.25629972, -101.49335042, 68.25747433], [-119.25629972, -100.22154418, 70.29278984], [-119.25629972, -98.94973794, 72.32810536], [-119.25629972, -97.6779317, 74.36341992], [-119.25629972, -96.40612552, 76.39873639], [-119.25629972, -95.13431934, 78.43405095], [-119.25629972, -93.86251298, 80.46936741], [-119.25629972, -92.59070674, 82.50468197], [-119.25629972, -91.3189005, 84.53999844], [-119.25629972, -90.04709426, 86.575313], [-119.25629972, -88.77528802, 88.61062756], [-119.25629972, -87.50348225, 90.64594403], [-119.25629972, -86.23167554, 92.68126049], [-119.25629972, -84.95986977, 94.71657315], [-119.25629972, -83.68806306, 96.75188961], [-119.25629972, -82.41625729, 98.78720608], [-119.25629972, -81.14445058, 100.82252255], [-119.25629972, -79.87264481, 102.8578352], [-119.25629972, -78.6008381, 104.89315167], [-119.25629972, -77.32903138, 106.92846814], [-119.25629972, -76.05722657, 108.96378079], [-119.25629972, -74.78541985, 110.99909726], [-119.25629972, -73.51361314, 113.03441372], [-119.25629972, -72.24180642, 115.06973019], [-119.25629972, -70.97000161, 117.10504284], [-119.25629972, -69.69819489, 119.14035931], [-119.25629972, -68.42638817, 121.17567578], [-119.25629972, -67.15458146, 123.21099224], [-119.25629972, -65.88277665, 125.2463049], [-119.25629972, -64.61096993, 127.28162136], [-119.25629972, -63.33916512, 129.31693783], [-119.25629972, -62.0673565, 131.3522543], [-119.25629972, -60.79555169, 133.38757077], [-119.25629972, -59.52374306, 135.4228796], [-119.25629972, -58.25193825, 137.45819607], [-119.25629972, -56.98013344, 139.49351254], [-119.25629972, -55.70832482, 141.52882901], [-119.25629972, -54.43652001, 143.56414547], [-119.25629972, -53.1647152, 145.59946194], [-119.25629972, -51.89290658, 147.63477841], [-119.25629972, -50.62110177, 149.67009488], [-119.25629972, -49.34929314, 151.70540371], [-119.25629972, -48.07748833, 153.74072018], [-119.25629972, -46.80568352, 155.77603665], [-119.25629972, -45.5338749, 157.81135311], [-119.25629972, -44.26207009, 159.84666958], [-119.25629972, -42.99026528, 161.88198605], [-119.25629972, -41.71845666, 163.91730252], [-119.25629972, -40.44665185, 165.95261135], [-119.25629972, -39.17484322, 167.98792782], [-119.25629972, -37.90303841, 170.02324429], [-119.25629972, -36.6312336, 172.05856076], [-119.25629972, -35.35942498, 174.09387722], [-119.25629972, -34.08762017, 176.12919369], [-119.25629972, -32.81581536, 178.16451016], [-119.25629972, -31.54401055, 180.199819]], "CsaImage.TimeAfterStart": [1.1, 0.735, 1.11, 0.745, 1.1225, 0.755, 1.1325, 0.7675, 1.1425, 0.7775, 1.1525, 0.7875, 1.165, 0.8, 1.175, 0.81, 1.185, 0.82, 1.1975, 0.83, 1.2075, 0.8425, 1.2175, 0.8525, 1.23, 0.8625, 1.24, 0.875, 1.25, 0.885, 1.26, 0.895, 1.2725, 0.9075, 1.2825, 0.9175, 1.2925, 0.9275, 1.305, 0.9375, 1.315, 0.95, 1.325, 0.96, 1.3375, 0.97, 1.3475, 0.9825, 1.3575, 0.9925, 1.3675, 1.0025, 1.38, 1.015, 1.39, 1.025, 1.4, 1.035, 1.4125, 1.045, 1.4225, 1.0575, 1.4325, 1.0675, 1.445, 1.0775, 1.455, 1.09], "ImagePositionPatient": [[-119.25629972429, -116.75502434436, 43.833688167321], [-119.25629972429, -115.48321953479, 45.869004634607], [-119.25629972429, -114.21141281787, 47.904320148217], [-119.25629972429, -112.93960610095, 49.939634708154], [-119.25629972429, -111.6678003377, 51.974950221765], [-119.25629972429, -110.39599362078, 54.010266212213], [-119.25629972429, -109.12418785754, 56.045581248987], [-119.25629972429, -107.8523820943, 58.080897001016], [-119.25629972429, -106.58057537738, 60.116212335813], [-119.25629972429, -105.30876961413, 62.151527789819], [-119.25629972429, -104.03696289721, 64.18684330343], [-119.25629972429, -102.76515665713, 66.222158817041], [-119.25629972429, -101.49335041705, 68.257474330652], [-119.25629972429, -100.22154417697, 70.292789844262], [-119.25629972429, -98.949737936886, 72.328105357873], [-119.25629972429, -97.677931696804, 74.36341991781], [-119.25629972429, -96.406125516327, 76.398736385095], [-119.25629972429, -95.13431933585, 78.434050945031], [-119.25629972429, -93.862512976559, 80.469367412317], [-119.25629972429, -92.590706736477, 82.504681972253], [-119.25629972429, -91.318900496395, 84.539998439538], [-119.25629972429, -90.047094256313, 86.575312999475], [-119.25629972429, -88.775288016231, 88.610627559411], [-119.25629972429, -87.503482252987, 90.645944026696], [-119.25629972429, -86.231675536068, 92.681260493982], [-119.25629972429, -84.959869772823, 94.71657314657], [-119.25629972429, -83.688063055904, 96.751889613855], [-119.25629972429, -82.41625729266, 98.78720608114], [-119.25629972429, -81.144450575741, 100.82252254842], [-119.25629972429, -79.872644812496, 102.85783520101], [-119.25629972429, -78.600838095577, 104.8931516683], [-119.25629972429, -77.329031378658, 106.92846813558], [-119.25629972429, -76.057226569088, 108.96378078817], [-119.25629972429, -74.785419852169, 110.99909725546], [-119.25629972429, -73.51361313525, 113.03441372274], [-119.25629972429, -72.241806418331, 115.06973019003], [-119.25629972429, -70.970001608761, 117.10504284261], [-119.25629972429, -69.698194891842, 119.1403593099], [-119.25629972429, -68.426388174923, 121.17567577718], [-119.25629972429, -67.154581458004, 123.21099224447], [-119.25629972429, -65.882776648434, 125.24630489706], [-119.25629972429, -64.610969931515, 127.28162136434], [-119.25629972429, -63.339165121944, 129.31693783163], [-119.25629972429, -62.067356497677, 131.35225429891], [-119.25629972429, -60.795551688106, 133.3875707662], [-119.25629972429, -59.523743063839, 135.42287960409], [-119.25629972429, -58.251938254269, 137.45819607137], [-119.25629972429, -56.980133444698, 139.49351253866], [-119.25629972429, -55.708324820431, 141.52882900594], [-119.25629972429, -54.43652001086, 143.56414547323], [-119.25629972429, -53.16471520129, 145.59946194051], [-119.25629972429, -51.892906577022, 147.6347784078], [-119.25629972429, -50.621101767452, 149.67009487509], [-119.25629972429, -49.349293143185, 151.70540371298], [-119.25629972429, -48.077488333614, 153.74072018026], [-119.25629972429, -46.805683524044, 155.77603664755], [-119.25629972429, -45.533874899776, 157.81135311483], [-119.25629972429, -44.262070090206, 159.84666958212], [-119.25629972429, -42.990265280636, 161.8819860494], [-119.25629972429, -41.718456656368, 163.91730251669], [-119.25629972429, -40.446651846798, 165.95261135458], [-119.25629972429, -39.17484322253, 167.98792782186], [-119.25629972429, -37.90303841296, 170.02324428915], [-119.25629972429, -36.63123360339, 172.05856075643], [-119.25629972429, -35.359424979122, 174.09387722372], [-119.25629972429, -34.087620169552, 176.129193691], [-119.25629972429, -32.815815359981, 178.16451015829], [-119.25629972429, -31.544010550411, 180.19981899618]], "InstanceCreationTime": ["073922.765000", "073922.687000", "073922.765000", "073922.687000", "073922.765000", "073922.687000", "073922.765000", "073922.687000", "073922.765000", "073922.687000", "073922.781000", "073922.687000", "073922.781000", "073922.703000", "073922.781000", "073922.703000", "073922.781000", "073922.703000", "073922.781000", "073922.703000", "073922.781000", "073922.703000", "073922.781000", "073922.703000", "073922.812000", "073922.703000", "073922.812000", "073922.703000", "073922.812000", "073922.703000", "073922.812000", "073922.718000", "073922.812000", "073922.718000", "073922.812000", "073922.718000", "073922.812000", "073922.718000", "073922.828000", "073922.718000", "073922.828000", "073922.718000", "073922.828000", "073922.718000", "073922.828000", "073922.718000", "073922.828000", "073922.718000", "073922.843000", "073922.750000", "073922.843000", "073922.750000", "073922.843000", "073922.750000", "073922.843000", "073922.750000", "073922.843000", "073922.750000", "073922.843000", "073922.750000", "073922.859000", "073922.750000", "073922.921000", "073922.765000", "073922.921000", "073922.765000", "073922.921000", "073922.765000"], "InstanceNumber": [1, 2, 3, 4, 5, 6, 7, 8, 9, 10, 11, 12, 13, 14, 15, 16, 17, 18, 19, 20, 21, 22, 23, 24, 25, 26, 27, 28, 29, 30, 31, 32, 33, 34, 35, 36, 37, 38, 39, 40, 41, 42, 43, 44, 45, 46, 47, 48, 49, 50, 51, 52, 53, 54, 55, 56, 57, 58, 59, 60, 61, 62, 63, 64, 65, 66, 67, 68], "LargestImagePixelValue": [4094, 4093, 4094, 4092, 4094, 4094, 4094, 4093, 4094, 4094, 4094, 4094, 4094, 4093, 4094, 4094, 4094, 4093, 4087, 4091, 4094, 4094, 4094, 4089, 4083, 4094, 4091, 4090, 4093, 4094, 4093, 4090, 4094, 4092, 4090, 4094, 4092, 4091, 4085, 4092, 4093, 4092, 4094, 4085, 4091, 4092, 4093, 4094, 4093, 4094, 4092, 4094, 4094, 4089, 4094, 4094, 4094, 4094, 4094, 4094, 4094, 4094, 4093, 4093, 4094, 4093, 4094, 4094], "SliceLocation": [-24.697660774302, -22.297660650209, -19.897660324137, -17.497660806827, -15.097660986126, -12.697660255673, -10.297660839352, -7.8976608164603, -5.4976606420313, -3.0976608718774, -0.6976605458056, 1.702339527581, 4.1023396009677, 6.5023396743543, 8.902339747741, 11.302339012366, 13.702339862929, 16.102339095968, 18.502340041288, 20.902339305913, 23.302340188061, 25.702339452686, 28.102338717311, 30.502339346774, 32.902340481608, 35.302337876024, 37.702339010857, 40.102339640321, 42.502340775154, 44.90233816957, 47.302339304404, 49.702340439238, 52.102337328284, 54.502338463117, 56.902339597951, 59.302340732784, 61.70233762183, 64.102338756664, 66.502339891497, 68.902341026331, 71.302337915377, 73.70233905021, 76.102339174303, 78.502341319877, 80.90234144397, 83.302337119451, 85.702337243544, 88.102337367636, 90.502339513211, 92.902339637303, 95.302339761396, 97.702341906971, 100.10234203106, 102.50233770654, 104.90233783064, 107.30233795473, 109.7023401003, 112.1023402244, 114.50234034849, 116.90234249406, 119.30233614806, 121.70233829364, 124.10233841773, 126.50233854182, 128.9023406874, 131.30234081149, 133.70234093558, 136.10233458958], "SmallestImagePixelValue": [0, 0, 0, 0, 2, 0, 0, 1, 1, 0, 3, 4, 0, 2, 0, 0, 0, 1, 4, 0, 0, 1, 4, 9, 0, 2, 2, 0, 0, 1, 2, 0, 0, 1, 2, 2, 0, 0, 0, 0, 0, 0, 0, 2, 2, 11, 0, 0, 1, 0, 4, 4, 2, 0, 4, 0, 0, 0, 0, 1, 0, 0, 0, 0, 0, 0, 1, 0], "WindowCenter": [-348.0, -284.0, -486.0, -584.0, -518.0, -484.0, -442.0, -486.0, -540.0, -604.0, -628.0, -580.0, -606.0, -532.0, -518.0, -518.0, -496.0, -436.0, -422.0, -396.0, -412.0, -362.0, -338.0, -318.0, -344.0, -358.0, -346.0, -338.0, -330.0, -334.0, -316.0, -270.0, -252.0, -240.0, -208.0, -218.0, -196.0, -210.0, -170.0, -168.0, -160.0, -188.0, -272.0, -288.0, -290.0, -286.0, -258.0, -242.0, -222.0, -276.0, -306.0, -326.0, -288.0, -284.0, -284.0, -306.0, -330.0, -384.0, -398.0, -422.0, -428.0, -450.0, -472.0, -420.0, -470.0, -450.0, -388.0, -464.0], "WindowWidth": [5754.0, 6032.0, 5006.0, 4982.0, 5026.0, 4980.0, 4962.0, 4958.0, 4872.0, 4776.0, 4704.0, 4644.0, 4624.0, 4602.0, 4570.0, 4536.0, 4466.0, 4438.0, 4368.0, 4348.0, 4286.0, 4168.0, 4064.0, 3972.0, 3880.0, 3840.0, 3752.0, 3792.0, 3778.0, 3794.0, 3836.0, 3884.0, 3858.0, 3890.0, 3982.0, 4008.0, 4046.0, 4064.0, 4076.0, 4088.0, 4132.0, 4130.0, 4170.0, 4174.0, 4198.0, 4196.0, 4230.0, 4206.0, 4256.0, 4246.0, 4266.0, 4250.0, 4318.0, 4326.0, 4364.0, 4392.0, 4478.0, 4528.0, 4598.0, 4736.0, 4804.0, 4816.0, 4798.0, 4910.0, 4924.0, 4940.0, 5006.0, 5064.0]}}}