{
    "AcquisitionMatrixPE": 96,
    "AcquisitionNumber": 1,
    "AcquisitionTime": "07:42:57.812500",
    "BandwidthPerPixelPhaseEncode": 33.602,
    "BaseResolution": 96,
    "BodyPartExamined": "BRAIN",
    "ConsistencyInfo": "N4_VD11D_LATEST_20110129",
    "ConversionSoftware": "dcm2niix",
    "ConversionSoftwareVersion": "v1.0.20210317",
    "DerivedVendorReportedEchoSpacing": 0.000620003,
    "DeviceSerialNumber": "45239",
    "DwellTime": 2.6e-06,
    "EchoTime": 0.03,
    "EchoTrainLength": 48,
    "EffectiveEchoSpacing": 0.000310001,
    "FlipAngle": 63,
    "ImageComments": "Unaliased MB4/PE3",
    "ImageOrientationPatientDICOM": [
        0.999469,
        0.0232958,
        -0.0227848,
        -0.0318293,
        0.847736,
        -0.529462
    ],
    "ImageType": [
        "ORIGINAL",
        "PRIMARY",
        "M",
        "ND",
        "NORM",
        "MOSAIC"
    ],
    "ImagingFrequency": 123.193,
    "InPlanePhaseEncodingDirectionDICOM": "COL",
    "InstitutionAddress": "E 24th St. 100,Austin,Southmiddle,US,78712",
    "InstitutionName": "Univ of Texas at Austin",
    "InstitutionalDepartmentName": "IRC",
    "MRAcquisitionType": "2D",
    "MagneticFieldStrength": 3,
    "Manufacturer": "Siemens",
    "ManufacturersModelName": "Skyra",
    "Modality": "MR",
    "MultibandAccelerationFactor": 4,
    "ParallelReductionFactorInPlane": 2,
    "PartialFourier": 1,
    "PatientPosition": "HFS",
    "PercentPhaseFOV": 100,
    "PercentSampling": 100,
    "PhaseEncodingDirection": "j-",
    "PhaseEncodingSteps": 96,
    "PhaseResolution": 1,
    "PixelBandwidth": 2005,
    "ProcedureStepDescription": "Poldrack2^self-scanning",
    "ProtocolName": "Resting State fMRI MBEPI_matrix96_BW2004",
    "PulseSequenceDetails": "%CustomerSeq%\\cmrr_mbep2d_bold",
    "ReceiveCoilActiveElements": "HEA;HEP",
    "ReceiveCoilName": "Head_32",
    "ReconMatrixPE": 96,
    "RefLinesPE": 94,
    "RepetitionTime": 1.16,
    "SAR": 0.105314,
    "ScanOptions": "FS",
    "ScanningSequence": "EP",
    "SequenceName": "epfid2d1_96",
    "SequenceVariant": "SK",
    "SeriesDescription": "Resting State fMRI MBEPI_matrix96_BW2004",
    "SeriesNumber": 6,
    "ShimSetting": [
        -2810,
        8068,
        -15466,
        143,
        -213,
        153,
        176,
        -97
    ],
    "SliceThickness": 2,
    "SliceTiming": [
        0,
        0.5,
        0.9975,
        0.3575,
        0.855,
        0.215,
        0.7125,
        0.0725,
        0.57,
        1.07,
        0.4275,
        0.9275,
        0.285,
        0.785,
        0.1425,
        0.6425,
        0,
        0.5,
        0.9975,
        0.3575,
        0.855,
        0.215,
        0.7125,
        0.0725,
        0.57,
        1.07,
        0.4275,
        0.9275,
        0.285,
        0.785,
        0.1425,
        0.6425,
        0,
        0.5,
        0.9975,
        0.3575,
        0.855,
        0.215,
        0.7125,
        0.0725,
        0.57,
        1.07,
        0.4275,
        0.9275,
        0.285,
        0.785,
        0.1425,
        0.6425,
        0,
        0.5,
        0.9975,
        0.3575,
        0.855,
        0.215,
        0.7125,
        0.0725,
        0.57,
        1.07,
        0.4275,
        0.9275,
        0.285,
        0.785,
        0.1425,
        0.6425
    ],
    "SoftwareVersions": "syngo MR D11",
    "SpacingBetweenSlices": 2.4,
    "StationName": "AWP45239",
    "TaskName": "Resting fmri",
    "TotalReadoutTime": 0.0294501,
    "TxRefAmp": 346.099,
    "WipMemBlock": "273b1a01-7698-4f8c-9a24-b38017dd8667||Sequence: VD11D r206; Feb 13 2013 18:52:04 by eja",
    "dcmmeta_affine": [
        [
            -2.3945608139038086,
            -0.0762576311826706,
            -0.01675504446029663,
            123.447509765625
        ],
        [
            -0.05581280216574669,
            2.031034469604492,
            -1.271775245666504,
            -76.27729034423828
        ],
        [
            -0.05458860099315643,
            1.2685034275054932,
            2.0352659225463867,
            -86.86299133300781
        ],
        [
            0.0,
            0.0,
            0.0,
            1.0
        ]
    ],
    "dcmmeta_reorient_transform": [
        [
            0.0,
            -1.0,
            0.0,
            95.0
        ],
        [
            1.0,
            0.0,
            0.0,
            0.0
        ],
        [
            0.0,
            0.0,
            1.0,
            0.0
        ],
        [
            0.0,
            0.0,
            0.0,
            1.0
        ]
    ],
    "dcmmeta_shape": [
        96,
        96,
        64,
        518
    ],
    "dcmmeta_slice_dim": 2,
    "dcmmeta_version": 0.6,
    "global": {
        "const": {
            "AcquisitionMatrix": [
                96,
                0,
                0,
                96
            ],
            "AngioFlag": "N",
            "BitsAllocated": 16,
            "BitsStored": 16,
            "BodyPartExamined": "BRAIN",
            "Columns": 768,
            "EchoNumbers": 1,
            "EchoTime": 30.0,
            "EchoTrainLength": 48,
            "FlipAngle": 63.0,
            "HighBit": 15,
            "ImageOrientationPatient": [
                0.99946893860773,
                0.02329577858307,
                -0.0227848076256,
                -0.031829273429,
                0.84773614670364,
                -0.5294622960373
            ],
            "ImagePositionPatient": [
                -895.15293810431,
                -817.85165638853,
                478.20373018349
            ],
            "ImageType": [
                "ORIGINAL",
                "PRIMARY",
                "M",
                "ND",
                "NORM",
                "MOSAIC"
            ],
            "ImagedNucleus": "1H",
            "ImagingFrequency": 123.193374,
            "InPlanePhaseEncodingDirection": "COL",
            "MRAcquisitionType": "2D",
            "MagneticFieldStrength": 3.0,
            "Manufacturer": "SIEMENS",
            "ManufacturerModelName": "Skyra",
            "Modality": "MR",
            "NumberOfAverages": 1.0,
            "NumberOfPhaseEncodingSteps": 96,
            "PercentPhaseFieldOfView": 100.0,
            "PercentSampling": 100.0,
            "PerformedProcedureStepStartTime": "072823.250000",
            "PhotometricInterpretation": "MONOCHROME2",
            "PixelBandwidth": 2005.0,
            "PixelRepresentation": 0,
            "PixelSpacing": [
                2.3958332538605,
                2.3958332538605
            ],
            "ProtocolName": "Resting State fMRI MBEPI_matrix96_BW2004",
            "RepetitionTime": 1160.0,
            "Rows": 768,
            "SAR": 0.10531385837955,
            "SamplesPerPixel": 1,
            "ScanOptions": "FS",
            "ScanningSequence": "EP",
            "SequenceName": "epfid2d1_96",
            "SequenceVariant": "SK",
            "SeriesDescription": "Resting State fMRI MBEPI_matrix96_BW2004",
            "SeriesNumber": 6,
            "SeriesTime": "074336.625000",
            "SliceLocation": -34.104200931866,
            "SliceThickness": 2.0,
            "SmallestImagePixelValue": 0,
            "SoftwareVersions": "syngo MR D11",
            "SpacingBetweenSlices": 2.4000000490554,
            "SpecificCharacterSet": "ISO_IR 100",
            "StudyID": "1",
            "StudyTime": "072823.218000",
            "TransmitCoilName": "Body",
            "VariableFlipAngleFlag": "N",
            "WindowCenterWidthExplanation": "Algo1",
            "dBdt": 0.0
        },
        "slices": {}
    },
    "time": {
        "samples": {
            "AcquisitionNumber": [
                1,
                2,
                3,
                4,
                5,
                6,
                7,
                8,
                9,
                10,
                11,
                12,
                13,
                14,
                15,
                16,
                17,
                18,
                19,
                20,
                21,
                22,
                23,
                24,
                25,
                26,
                27,
                28,
                29,
                30,
                31,
                32,
                33,
                34,
                35,
                36,
                37,
                38,
                39,
                40,
                41,
                42,
                43,
                44,
                45,
                46,
                47,
                48,
                49,
                50,
                51,
                52,
                53,
                54,
                55,
                56,
                57,
                58,
                59,
                60,
                61,
                62,
                63,
                64,
                65,
                66,
                67,
                68,
                69,
                70,
                71,
                72,
                73,
                74,
                75,
                76,
                77,
                78,
                79,
                80,
                81,
                82,
                83,
                84,
                85,
                86,
                87,
                88,
                89,
                90,
                91,
                92,
                93,
                94,
                95,
                96,
                97,
                98,
                99,
                100,
                101,
                102,
                103,
                104,
                105,
                106,
                107,
                108,
                109,
                110,
                111,
                112,
                113,
                114,
                115,
                116,
                117,
                118,
                119,
                120,
                121,
                122,
                123,
                124,
                125,
                126,
                127,
                128,
                129,
                130,
                131,
                132,
                133,
                134,
                135,
                136,
                137,
                138,
                139,
                140,
                141,
                142,
                143,
                144,
                145,
                146,
                147,
                148,
                149,
                150,
                151,
                152,
                153,
                154,
                155,
                156,
                157,
                158,
                159,
                160,
                161,
                162,
                163,
                164,
                165,
                166,
                167,
                168,
                169,
                170,
                171,
                172,
                173,
                174,
                175,
                176,
                177,
                178,
                179,
                180,
                181,
                182,
                183,
                184,
                185,
                186,
                187,
                188,
                189,
                190,
                191,
                192,
                193,
                194,
                195,
                196,
                197,
                198,
                199,
                200,
                201,
                202,
                203,
                204,
                205,
                206,
                207,
                208,
                209,
                210,
                211,
                212,
                213,
                214,
                215,
                216,
                217,
                218,
                219,
                220,
                221,
                222,
                223,
                224,
                225,
                226,
                227,
                228,
                229,
                230,
                231,
                232,
                233,
                234,
                235,
                236,
                237,
                238,
                239,
                240,
                241,
                242,
                243,
                244,
                245,
                246,
                247,
                248,
                249,
                250,
                251,
                252,
                253,
                254,
                255,
                256,
                257,
                258,
                259,
                260,
                261,
                262,
                263,
                264,
                265,
                266,
                267,
                268,
                269,
                270,
                271,
                272,
                273,
                274,
                275,
                276,
                277,
                278,
                279,
                280,
                281,
                282,
                283,
                284,
                285,
                286,
                287,
                288,
                289,
                290,
                291,
                292,
                293,
                294,
                295,
                296,
                297,
                298,
                299,
                300,
                301,
                302,
                303,
                304,
                305,
                306,
                307,
                308,
                309,
                310,
                311,
                312,
                313,
                314,
                315,
                316,
                317,
                318,
                319,
                320,
                321,
                322,
                323,
                324,
                325,
                326,
                327,
                328,
                329,
                330,
                331,
                332,
                333,
                334,
                335,
                336,
                337,
                338,
                339,
                340,
                341,
                342,
                343,
                344,
                345,
                346,
                347,
                348,
                349,
                350,
                351,
                352,
                353,
                354,
                355,
                356,
                357,
                358,
                359,
                360,
                361,
                362,
                363,
                364,
                365,
                366,
                367,
                368,
                369,
                370,
                371,
                372,
                373,
                374,
                375,
                376,
                377,
                378,
                379,
                380,
                381,
                382,
                383,
                384,
                385,
                386,
                387,
                388,
                389,
                390,
                391,
                392,
                393,
                394,
                395,
                396,
                397,
                398,
                399,
                400,
                401,
                402,
                403,
                404,
                405,
                406,
                407,
                408,
                409,
                410,
                411,
                412,
                413,
                414,
                415,
                416,
                417,
                418,
                419,
                420,
                421,
                422,
                423,
                424,
                425,
                426,
                427,
                428,
                429,
                430,
                431,
                432,
                433,
                434,
                435,
                436,
                437,
                438,
                439,
                440,
                441,
                442,
                443,
                444,
                445,
                446,
                447,
                448,
                449,
                450,
                451,
                452,
                453,
                454,
                455,
                456,
                457,
                458,
                459,
                460,
                461,
                462,
                463,
                464,
                465,
                466,
                467,
                468,
                469,
                470,
                471,
                472,
                473,
                474,
                475,
                476,
                477,
                478,
                479,
                480,
                481,
                482,
                483,
                484,
                485,
                486,
                487,
                488,
                489,
                490,
                491,
                492,
                493,
                494,
                495,
                496,
                497,
                498,
                499,
                500,
                501,
                502,
                503,
                504,
                505,
                506,
                507,
                508,
                509,
                510,
                511,
                512,
                513,
                514,
                515,
                516,
                517,
                518
            ],
            "AcquisitionTime": [
                "074257.812500",
                "074326.812500",
                "074327.972500",
                "074329.132500",
                "074330.292500",
                "074331.452500",
                "074332.612500",
                "074333.772500",
                "074334.932500",
                "074336.092500",
                "074337.252500",
                "074338.412500",
                "074339.572500",
                "074340.732500",
                "074341.892500",
                "074343.052500",
                "074344.212500",
                "074345.372500",
                "074346.532500",
                "074347.692500",
                "074348.852500",
                "074350.012500",
                "074351.172500",
                "074352.332500",
                "074353.492500",
                "074354.652500",
                "074355.812500",
                "074356.972500",
                "074358.132500",
                "074359.292500",
                "074400.452500",
                "074401.612500",
                "074402.772500",
                "074403.932500",
                "074405.092500",
                "074406.252500",
                "074407.412500",
                "074408.572500",
                "074409.732500",
                "074410.892500",
                "074412.052500",
                "074413.212500",
                "074414.372500",
                "074415.532500",
                "074416.692500",
                "074417.852500",
                "074419.012500",
                "074420.175000",
                "074421.335000",
                "074422.495000",
                "074423.655000",
                "074424.815000",
                "074425.975000",
                "074427.135000",
                "074428.295000",
                "074429.455000",
                "074430.615000",
                "074431.775000",
                "074432.935000",
                "074434.095000",
                "074435.255000",
                "074436.415000",
                "074437.575000",
                "074438.735000",
                "074439.895000",
                "074441.055000",
                "074442.215000",
                "074443.375000",
                "074444.535000",
                "074445.695000",
                "074446.855000",
                "074448.015000",
                "074449.175000",
                "074450.335000",
                "074451.495000",
                "074452.655000",
                "074453.815000",
                "074454.975000",
                "074456.135000",
                "074457.295000",
                "074458.455000",
                "074459.615000",
                "074500.775000",
                "074501.935000",
                "074503.095000",
                "074504.255000",
                "074505.415000",
                "074506.575000",
                "074507.735000",
                "074508.895000",
                "074510.055000",
                "074511.215000",
                "074512.375000",
                "074513.535000",
                "074514.695000",
                "074515.855000",
                "074517.015000",
                "074518.175000",
                "074519.335000",
                "074520.495000",
                "074521.655000",
                "074522.815000",
                "074523.975000",
                "074525.135000",
                "074526.295000",
                "074527.455000",
                "074528.615000",
                "074529.775000",
                "074530.935000",
                "074532.095000",
                "074533.255000",
                "074534.415000",
                "074535.575000",
                "074536.735000",
                "074537.895000",
                "074539.055000",
                "074540.215000",
                "074541.375000",
                "074542.535000",
                "074543.695000",
                "074544.855000",
                "074546.015000",
                "074547.175000",
                "074548.335000",
                "074549.495000",
                "074550.655000",
                "074551.815000",
                "074552.975000",
                "074554.135000",
                "074555.295000",
                "074556.455000",
                "074557.615000",
                "074558.775000",
                "074559.935000",
                "074601.095000",
                "074602.255000",
                "074603.415000",
                "074604.575000",
                "074605.735000",
                "074606.895000",
                "074608.055000",
                "074609.215000",
                "074610.375000",
                "074611.535000",
                "074612.695000",
                "074613.855000",
                "074615.015000",
                "074616.175000",
                "074617.335000",
                "074618.495000",
                "074619.655000",
                "074620.815000",
                "074621.975000",
                "074623.135000",
                "074624.295000",
                "074625.455000",
                "074626.615000",
                "074627.775000",
                "074628.935000",
                "074630.095000",
                "074631.255000",
                "074632.415000",
                "074633.575000",
                "074634.735000",
                "074635.895000",
                "074637.055000",
                "074638.215000",
                "074639.375000",
                "074640.535000",
                "074641.695000",
                "074642.855000",
                "074644.015000",
                "074645.175000",
                "074646.335000",
                "074647.495000",
                "074648.655000",
                "074649.815000",
                "074650.975000",
                "074652.135000",
                "074653.295000",
                "074654.455000",
                "074655.615000",
                "074656.775000",
                "074657.935000",
                "074659.095000",
                "074700.255000",
                "074701.415000",
                "074702.575000",
                "074703.735000",
                "074704.895000",
                "074706.055000",
                "074707.215000",
                "074708.375000",
                "074709.535000",
                "074710.695000",
                "074711.855000",
                "074713.015000",
                "074714.175000",
                "074715.335000",
                "074716.495000",
                "074717.655000",
                "074718.815000",
                "074719.975000",
                "074721.135000",
                "074722.295000",
                "074723.455000",
                "074724.615000",
                "074725.775000",
                "074726.935000",
                "074728.095000",
                "074729.255000",
                "074730.415000",
                "074731.575000",
                "074732.735000",
                "074733.895000",
                "074735.055000",
                "074736.215000",
                "074737.375000",
                "074738.535000",
                "074739.695000",
                "074740.855000",
                "074742.015000",
                "074743.175000",
                "074744.335000",
                "074745.495000",
                "074746.655000",
                "074747.815000",
                "074748.975000",
                "074750.135000",
                "074751.295000",
                "074752.455000",
                "074753.615000",
                "074754.775000",
                "074755.935000",
                "074757.095000",
                "074758.255000",
                "074759.415000",
                "074800.575000",
                "074801.735000",
                "074802.895000",
                "074804.055000",
                "074805.215000",
                "074806.375000",
                "074807.535000",
                "074808.695000",
                "074809.855000",
                "074811.015000",
                "074812.175000",
                "074813.335000",
                "074814.495000",
                "074815.655000",
                "074816.815000",
                "074817.975000",
                "074819.135000",
                "074820.295000",
                "074821.455000",
                "074822.615000",
                "074823.775000",
                "074824.935000",
                "074826.095000",
                "074827.255000",
                "074828.415000",
                "074829.575000",
                "074830.735000",
                "074831.895000",
                "074833.055000",
                "074834.215000",
                "074835.375000",
                "074836.535000",
                "074837.695000",
                "074838.855000",
                "074840.015000",
                "074841.175000",
                "074842.335000",
                "074843.495000",
                "074844.655000",
                "074845.815000",
                "074846.975000",
                "074848.135000",
                "074849.295000",
                "074850.455000",
                "074851.615000",
                "074852.775000",
                "074853.935000",
                "074855.095000",
                "074856.255000",
                "074857.415000",
                "074858.575000",
                "074859.735000",
                "074900.895000",
                "074902.055000",
                "074903.215000",
                "074904.375000",
                "074905.535000",
                "074906.695000",
                "074907.855000",
                "074909.015000",
                "074910.177500",
                "074911.337500",
                "074912.497500",
                "074913.657500",
                "074914.817500",
                "074915.977500",
                "074917.137500",
                "074918.297500",
                "074919.457500",
                "074920.617500",
                "074921.777500",
                "074922.937500",
                "074924.097500",
                "074925.257500",
                "074926.417500",
                "074927.577500",
                "074928.737500",
                "074929.897500",
                "074931.057500",
                "074932.217500",
                "074933.377500",
                "074934.537500",
                "074935.697500",
                "074936.857500",
                "074938.017500",
                "074939.177500",
                "074940.337500",
                "074941.497500",
                "074942.657500",
                "074943.817500",
                "074944.977500",
                "074946.137500",
                "074947.297500",
                "074948.457500",
                "074949.617500",
                "074950.777500",
                "074951.937500",
                "074953.097500",
                "074954.257500",
                "074955.417500",
                "074956.577500",
                "074957.737500",
                "074958.897500",
                "075000.057500",
                "075001.217500",
                "075002.377500",
                "075003.537500",
                "075004.697500",
                "075005.857500",
                "075007.017500",
