{
    "AcquisitionMatrixPE": 96,
    "AcquisitionNumber": 1,
    "AcquisitionTime": "07:55:46.597500",
    "BandwidthPerPixelPhaseEncode": 33.602,
    "BaseResolution": 96,
    "BodyPartExamined": "BRAIN",
    "ConsistencyInfo": "N4_VD11D_LATEST_20110129",
    "ConversionSoftware": "dcm2niix",
    "ConversionSoftwareVersion": "v1.0.20210317",
    "DerivedVendorReportedEchoSpacing": 0.000620003,
    "DeviceSerialNumber": "45239",
    "DwellTime": 2.6e-06,
    "EchoTime": 0.03,
    "EchoTrainLength": 48,
    "EffectiveEchoSpacing": 0.000310001,
    "FlipAngle": 63,
    "ImageComments": "Unaliased MB4/PE3",
    "ImageOrientationPatientDICOM": [
        0.999469,
        0.0232958,
        -0.0227848,
        -0.0318293,
        0.847736,
        -0.529462
    ],
    "ImageType": [
        "ORIGINAL",
        "PRIMARY",
        "M",
        "ND",
        "NORM",
        "MOSAIC"
    ],
    "ImagingFrequency": 123.193,
    "InPlanePhaseEncodingDirectionDICOM": "COL",
    "InstitutionAddress": "E 24th St. 100,Austin,Southmiddle,US,78712",
    "InstitutionName": "Univ of Texas at Austin",
    "InstitutionalDepartmentName": "IRC",
    "MRAcquisitionType": "2D",
    "MagneticFieldStrength": 3,
    "Manufacturer": "Siemens",
    "ManufacturersModelName": "Skyra",
    "Modality": "MR",
    "MultibandAccelerationFactor": 4,
    "ParallelReductionFactorInPlane": 2,
    "PartialFourier": 1,
    "PatientPosition": "HFS",
    "PercentPhaseFOV": 100,
    "PercentSampling": 100,
    "PhaseEncodingDirection": "j-",
    "PhaseEncodingSteps": 96,
    "PhaseResolution": 1,
    "PixelBandwidth": 2005,
    "ProcedureStepDescription": "Poldrack2^self-scanning",
    "ProtocolName": "Breath Hold",
    "PulseSequenceDetails": "%CustomerSeq%\\cmrr_mbep2d_bold",
    "ReceiveCoilActiveElements": "HEA;HEP",
    "ReceiveCoilName": "Head_32",
    "ReconMatrixPE": 96,
    "RefLinesPE": 94,
    "RepetitionTime": 1.16,
    "SAR": 0.103737,
    "ScanOptions": "FS",
    "ScanningSequence": "EP",
    "SequenceName": "epfid2d1_96",
    "SequenceVariant": "SK",
    "SeriesDescription": "Breath Hold",
    "SeriesNumber": 8,
    "ShimSetting": [
        -2810,
        8068,
        -15466,
        143,
        -213,
        153,
        176,
        -97
    ],
    "SliceThickness": 2,
    "SliceTiming": [
        0,
        0.4975,
        0.9975,
        0.355,
        0.855,
        0.215,
        0.7125,
        0.0725,
        0.57,
        1.0675,
        0.4275,
        0.925,
        0.285,
        0.7825,
        0.1425,
        0.64,
        0,
        0.4975,
        0.9975,
        0.355,
        0.855,
        0.215,
        0.7125,
        0.0725,
        0.57,
        1.0675,
        0.4275,
        0.925,
        0.285,
        0.7825,
        0.1425,
        0.64,
        0,
        0.4975,
        0.9975,
        0.355,
        0.855,
        0.215,
        0.7125,
        0.0725,
        0.57,
        1.0675,
        0.4275,
        0.925,
        0.285,
        0.7825,
        0.1425,
        0.64,
        0,
        0.4975,
        0.9975,
        0.355,
        0.855,
        0.215,
        0.7125,
        0.0725,
        0.57,
        1.0675,
        0.4275,
        0.925,
        0.285,
        0.7825,
        0.1425,
        0.64
    ],
    "SoftwareVersions": "syngo MR D11",
    "SpacingBetweenSlices": 2.4,
    "StationName": "AWP45239",
    "TaskName": "Breath holding task",
    "TotalReadoutTime": 0.0294501,
    "TxRefAmp": 346.099,
    "WipMemBlock": "0fb35757-b2bd-4457-b538-a9cef608db14||Sequence: VD11D r206; Feb 13 2013 18:52:04 by eja",
    "dcmmeta_affine": [
        [
            -2.3945608139038086,
            -0.0762576311826706,
            -0.01675504446029663,
            123.447509765625
        ],
        [
            -0.05581280216574669,
            2.031034469604492,
            -1.271775245666504,
            -76.27729034423828
        ],
        [
            -0.05458860099315643,
            1.2685034275054932,
            2.0352659225463867,
            -86.86299133300781
        ],
        [
            0.0,
            0.0,
            0.0,
            1.0
        ]
    ],
    "dcmmeta_reorient_transform": [
        [
            0.0,
            -1.0,
            0.0,
            95.0
        ],
        [
            1.0,
            0.0,
            0.0,
            0.0
        ],
        [
            0.0,
            0.0,
            1.0,
            0.0
        ],
        [
            0.0,
            0.0,
            0.0,
            1.0
        ]
    ],
    "dcmmeta_shape": [
        96,
        96,
        64,
        318
    ],
    "dcmmeta_slice_dim": 2,
    "dcmmeta_version": 0.6,
    "global": {
        "const": {
            "AcquisitionMatrix": [
                96,
                0,
                0,
                96
            ],
            "AngioFlag": "N",
            "BitsAllocated": 16,
            "BitsStored": 16,
            "BodyPartExamined": "BRAIN",
            "Columns": 768,
            "EchoNumbers": 1,
            "EchoTime": 30.0,
            "EchoTrainLength": 48,
            "FlipAngle": 63.0,
            "HighBit": 15,
            "ImageOrientationPatient": [
                0.99946893860773,
                0.02329577858307,
                -0.0227848076256,
                -0.031829273429,
                0.84773614670364,
                -0.5294622960373
            ],
            "ImagePositionPatient": [
                -895.15293810431,
                -817.85165638853,
                478.20373018349
            ],
            "ImageType": [
                "ORIGINAL",
                "PRIMARY",
                "M",
                "ND",
                "NORM",
                "MOSAIC"
            ],
            "ImagedNucleus": "1H",
            "ImagingFrequency": 123.193411,
            "InPlanePhaseEncodingDirection": "COL",
            "MRAcquisitionType": "2D",
            "MagneticFieldStrength": 3.0,
            "Manufacturer": "SIEMENS",
            "ManufacturerModelName": "Skyra",
            "Modality": "MR",
            "NumberOfAverages": 1.0,
            "NumberOfPhaseEncodingSteps": 96,
            "PercentPhaseFieldOfView": 100.0,
            "PercentSampling": 100.0,
            "PerformedProcedureStepStartTime": "072823.250000",
            "PhotometricInterpretation": "MONOCHROME2",
            "PixelBandwidth": 2005.0,
            "PixelRepresentation": 0,
            "PixelSpacing": [
                2.3958332538605,
                2.3958332538605
            ],
            "ProtocolName": "Breath Hold",
            "RepetitionTime": 1160.0,
            "Rows": 768,
            "SAR": 0.10373739194651,
            "SamplesPerPixel": 1,
            "ScanOptions": "FS",
            "ScanningSequence": "EP",
            "SequenceName": "epfid2d1_96",
            "SequenceVariant": "SK",
            "SeriesDescription": "Breath Hold",
            "SeriesNumber": 8,
            "SeriesTime": "075627.468000",
            "SliceLocation": -34.104200931866,
            "SliceThickness": 2.0,
            "SmallestImagePixelValue": 0,
            "SoftwareVersions": "syngo MR D11",
            "SpacingBetweenSlices": 2.4000000490554,
            "SpecificCharacterSet": "ISO_IR 100",
            "StudyID": "1",
            "StudyTime": "072823.218000",
            "TransmitCoilName": "Body",
            "VariableFlipAngleFlag": "N",
            "WindowCenterWidthExplanation": "Algo1",
            "dBdt": 0.0
        },
        "slices": {}
    },
    "time": {
        "samples": {
            "AcquisitionNumber": [
                1,
                2,
                3,
                4,
                5,
                6,
                7,
                8,
                9,
                10,
                11,
                12,
                13,
                14,
                15,
                16,
                17,
                18,
                19,
                20,
                21,
                22,
                23,
                24,
                25,
                26,
                27,
                28,
                29,
                30,
                31,
                32,
                33,
                34,
                35,
                36,
                37,
                38,
                39,
                40,
                41,
                42,
                43,
                44,
                45,
                46,
                47,
                48,
                49,
                50,
                51,
                52,
                53,
                54,
                55,
                56,
                57,
                58,
                59,
                60,
                61,
                62,
                63,
                64,
                65,
                66,
                67,
                68,
                69,
                70,
                71,
                72,
                73,
                74,
                75,
                76,
                77,
                78,
                79,
                80,
                81,
                82,
                83,
                84,
                85,
                86,
                87,
                88,
                89,
                90,
                91,
                92,
                93,
                94,
                95,
                96,
                97,
                98,
                99,
                100,
                101,
                102,
                103,
                104,
                105,
                106,
                107,
                108,
                109,
                110,
                111,
                112,
                113,
                114,
                115,
                116,
                117,
                118,
                119,
                120,
                121,
                122,
                123,
                124,
                125,
                126,
                127,
                128,
                129,
                130,
                131,
                132,
                133,
                134,
                135,
                136,
                137,
                138,
                139,
                140,
                141,
                142,
                143,
                144,
                145,
                146,
                147,
                148,
                149,
                150,
                151,
                152,
                153,
                154,
                155,
                156,
                157,
                158,
                159,
                160,
                161,
                162,
                163,
                164,
                165,
                166,
                167,
                168,
                169,
                170,
                171,
                172,
                173,
                174,
                175,
                176,
                177,
                178,
                179,
                180,
                181,
                182,
                183,
                184,
                185,
                186,
                187,
                188,
                189,
                190,
                191,
                192,
                193,
                194,
                195,
                196,
                197,
                198,
                199,
                200,
                201,
                202,
                203,
                204,
                205,
                206,
                207,
                208,
                209,
                210,
                211,
                212,
                213,
                214,
                215,
                216,
                217,
                218,
                219,
                220,
                221,
                222,
                223,
                224,
                225,
                226,
                227,
                228,
                229,
                230,
                231,
                232,
                233,
                234,
                235,
                236,
                237,
                238,
                239,
                240,
                241,
                242,
                243,
                244,
                245,
                246,
                247,
                248,
                249,
                250,
                251,
                252,
                253,
                254,
                255,
                256,
                257,
                258,
                259,
                260,
                261,
                262,
                263,
                264,
                265,
                266,
                267,
                268,
                269,
                270,
                271,
                272,
                273,
                274,
                275,
                276,
                277,
                278,
                279,
                280,
                281,
                282,
                283,
                284,
                285,
                286,
                287,
                288,
                289,
                290,
                291,
                292,
                293,
                294,
                295,
                296,
                297,
                298,
                299,
                300,
                301,
                302,
                303,
                304,
                305,
                306,
                307,
                308,
                309,
                310,
                311,
                312,
                313,
                314,
                315,
                316,
                317,
                318
            ],
            "AcquisitionTime": [
                "075546.597500",
                "075615.597500",
                "075616.757500",
                "075617.917500",
                "075619.077500",
                "075620.237500",
                "075621.397500",
                "075622.557500",
                "075623.717500",
                "075624.877500",
                "075626.037500",
                "075627.197500",
                "075628.357500",
                "075629.517500",
                "075630.677500",
                "075631.837500",
                "075632.997500",
                "075634.157500",
                "075635.317500",
                "075636.477500",
                "075637.637500",
                "075638.797500",
                "075639.957500",
                "075641.117500",
                "075642.277500",
                "075643.437500",
                "075644.597500",
                "075645.757500",
                "075646.917500",
                "075648.077500",
                "075649.237500",
                "075650.397500",
                "075651.557500",
                "075652.717500",
                "075653.877500",
                "075655.037500",
                "075656.197500",
                "075657.357500",
                "075658.517500",
                "075659.677500",
                "075700.837500",
                "075701.997500",
                "075703.157500",
                "075704.317500",
                "075705.477500",
                "075706.637500",
                "075707.797500",
                "075708.957500",
                "075710.117500",
                "075711.277500",
                "075712.437500",
                "075713.597500",
                "075714.757500",
                "075715.917500",
                "075717.077500",
                "075718.237500",
                "075719.397500",
                "075720.557500",
                "075721.717500",
                "075722.877500",
                "075724.037500",
                "075725.197500",
                "075726.357500",
                "075727.517500",
                "075728.677500",
                "075729.837500",
                "075730.997500",
                "075732.157500",
                "075733.317500",
                "075734.477500",
                "075735.637500",
                "075736.797500",
                "075737.957500",
                "075739.117500",
                "075740.277500",
                "075741.437500",
                "075742.597500",
                "075743.757500",
                "075744.917500",
                "075746.077500",
                "075747.237500",
                "075748.397500",
                "075749.557500",
                "075750.717500",
                "075751.877500",
                "075753.037500",
                "075754.197500",
                "075755.357500",
                "075756.517500",
                "075757.677500",
                "075758.837500",
                "075759.997500",
                "075801.157500",
                "075802.317500",
                "075803.477500",
                "075804.637500",
                "075805.797500",
                "075806.957500",
                "075808.117500",
                "075809.277500",
                "075810.437500",
                "075811.597500",
                "075812.757500",
                "075813.917500",
                "075815.077500",
                "075816.237500",
                "075817.397500",
                "075818.557500",
                "075819.717500",
                "075820.877500",
                "075822.037500",
                "075823.197500",
                "075824.357500",
                "075825.517500",
                "075826.680000",
                "075827.840000",
                "075829.000000",
                "075830.160000",
                "075831.320000",
                "075832.480000",
                "075833.640000",
                "075834.800000",
                "075835.960000",
                "075837.120000",
                "075838.280000",
                "075839.440000",
                "075840.600000",
                "075841.760000",
                "075842.920000",
                "075844.080000",
                "075845.240000",
                "075846.400000",
                "075847.560000",
                "075848.720000",
                "075849.880000",
                "075851.040000",
                "075852.200000",
                "075853.360000",
                "075854.520000",
                "075855.680000",
                "075856.840000",
                "075858.000000",
                "075859.160000",
                "075900.320000",
                "075901.480000",
                "075902.640000",
                "075903.800000",
                "075904.960000",
                "075906.120000",
                "075907.280000",
                "075908.440000",
                "075909.600000",
                "075910.760000",
                "075911.920000",
                "075913.080000",
                "075914.240000",
                "075915.400000",
                "075916.560000",
                "075917.720000",
                "075918.880000",
                "075920.040000",
                "075921.200000",
                "075922.360000",
                "075923.520000",
                "075924.680000",
                "075925.840000",
                "075927.000000",
                "075928.160000",
                "075929.320000",
                "075930.480000",
                "075931.640000",
                "075932.800000",
                "075933.960000",
                "075935.120000",
                "075936.280000",
                "075937.440000",
                "075938.600000",
                "075939.760000",
                "075940.920000",
                "075942.080000",
                "075943.240000",
                "075944.400000",
                "075945.560000",
                "075946.720000",
                "075947.880000",
                "075949.040000",
                "075950.200000",
                "075951.360000",
                "075952.520000",
                "075953.680000",
                "075954.840000",
                "075956.000000",
                "075957.160000",
                "075958.320000",
                "075959.480000",
                "080000.640000",
                "080001.800000",
                "080002.960000",
                "080004.120000",
                "080005.280000",
                "080006.440000",
                "080007.600000",
                "080008.760000",
                "080009.920000",
                "080011.080000",
                "080012.240000",
                "080013.400000",
                "080014.560000",
                "080015.720000",
                "080016.880000",
                "080018.040000",
                "080019.200000",
                "080020.360000",
                "080021.520000",
                "080022.680000",
                "080023.840000",
                "080025.000000",
                "080026.160000",
                "080027.320000",
                "080028.480000",
                "080029.640000",
                "080030.800000",
                "080031.960000",
                "080033.120000",
                "080034.280000",
                "080035.440000",
                "080036.600000",
                "080037.760000",
                "080038.920000",
                "080040.080000",
                "080041.240000",
                "080042.400000",
                "080043.560000",
                "080044.720000",
                "080045.880000",
                "080047.040000",
                "080048.200000",
                "080049.360000",
                "080050.520000",
                "080051.680000",
                "080052.840000",
                "080054.000000",
                "080055.160000",
                "080056.320000",
                "080057.480000",
                "080058.640000",
                "080059.800000",
                "080100.960000",
                "080102.120000",
                "080103.280000",
                "080104.440000",
                "080105.600000",
                "080106.760000",
                "080107.920000",
                "080109.080000",
                "080110.240000",
                "080111.400000",
                "080112.560000",
                "080113.720000",
                "080114.880000",
                "080116.040000",
                "080117.200000",
                "080118.360000",
                "080119.520000",
                "080120.680000",
                "080121.840000",
                "080123.000000",
                "080124.160000",
                "080125.320000",
                "080126.480000",
                "080127.640000",
                "080128.800000",
                "080129.960000",
                "080131.120000",
                "080132.280000",
                "080133.440000",
                "080134.600000",
                "080135.760000",
                "080136.920000",
                "080138.080000",
                "080139.240000",
                "080140.400000",
                "080141.560000",
                "080142.720000",
                "080143.880000",
                "080145.040000",
                "080146.200000",
                "080147.360000",
                "080148.520000",
                "080149.680000",
                "080150.840000",
                "080152.000000",
                "080153.160000",
                "080154.320000",
                "080155.480000",
                "080156.640000",
                "080157.800000",
                "080158.960000",
                "080200.120000",
                "080201.280000",
                "080202.440000",
                "080203.600000",
                "080204.760000",
                "080205.920000",
                "080207.080000",
                "080208.240000",
                "080209.400000",
                "080210.560000",
                "080211.720000",
                "080212.880000",
                "080214.040000",
                "080215.200000",
                "080216.360000",
                "080217.520000",
                "080218.680000",
                "080219.840000",
                "080221.000000",
                "080222.160000"
            ],
            "ContentTime": [
                "075627.484000",
                "075635.796000",
                "075635.812000",
                "075635.812000",
                "075635.812000",
                "075635.812000",
                "075635.812000",
                "075635.812000",
                "075640.796000",
                "075640.812000",
                "075640.812000",
                "075645.796000",
                "075645.812000",
                "075645.812000",
                "075645.828000",
                "075650.796000",
                "075650.812000",
                "075650.812000",
                "075650.812000",
                "075655.796000",
                "075655.812000",
                "075655.812000",
                "075700.796000",
                "075700.812000",
                "075700.812000",
                "075700.812000",
                "075705.796000",
                "075705.812000",
                "075705.812000",
                "075705.812000",
                "075710.796000",
                "075710.812000",
                "075710.812000",
                "075710.812000",
                "075715.796000",
                "075715.812000",
                "075715.812000",
                "075720.796000",
                "075720.812000",
                "075720.812000",
                "075720.812000",
                "075725.796000",
                "075725.812000",
                "075725.812000",
                "075725.812000",
                "075730.796000",
                "075730.812000",
                "075730.812000",
                "075735.796000",
                "075735.812000",
                "075735.812000",
                "075735.812000",
                "075740.796000",
                "075740.812000",
                "075740.812000",
                "075745.796000",
                "075745.812000",
                "075745.812000",
                "075745.812000",
                "075750.796000",
                "075750.812000",
                "075750.812000",
                "075750.812000",
                "075755.796000",
                "075755.812000",
                "075755.812000",
                "075800.796000",
                "075800.812000",
                "075800.812000",
                "075800.812000",
                "075805.796000",
                "075805.812000",
                "075805.812000",
                "075810.796000",
                "075810.812000",
                "075810.812000",
                "075815.796000",
                "075815.812000",
                "075815.812000",
                "075815.812000",
                "075820.796000",
                "075820.812000",
                "075820.812000",
                "075820.812000",
                "075825.796000",
                "075825.812000",
                "075825.812000",
                "075830.796000",
                "075830.812000",
                "075830.812000",
                "075830.812000",
                "075835.796000",
                "075835.828000",
                "075835.828000",
                "075835.828000",
                "075840.796000",
                "075840.812000",
                "075840.812000",
                "075845.796000",
                "075845.812000",
                "075845.812000",
                "075845.812000",
                "075850.796000",
                "075850.812000",
                "075850.812000",
                "075850.812000",
                "075855.796000",
                "075855.812000",
                "075855.812000",
                "075900.796000",
                "075900.812000",
                "075900.812000",
                "075900.812000",
                "075905.796000",
                "075905.812000",
                "075905.812000",
                "075905.812000",
                "075910.796000",
                "075910.812000",
                "075910.812000",
                "075910.812000",
                "075915.796000",
                "075915.812000",
                "075915.812000",
                "075915.812000",
                "075920.796000",
                "075920.812000",
                "075920.812000",
                "075925.796000",
                "075925.812000",
                "075925.812000",
                "075925.812000",
                "075930.796000",
                "075930.812000",
                "075930.812000",
                "075930.812000",
                "075935.796000",
                "075935.812000",
                "075935.812000",
                "075935.812000",
                "075940.796000",
                "075940.812000",
                "075940.812000",
                "075945.796000",
                "075945.812000",
                "075945.812000",
                "075950.796000",
                "075950.812000",
                "075950.812000",
                "075950.812000",
                "080000.796000",
                "080000.812000",
                "080000.812000",
                "080000.812000",
                "080000.812000",
                "080000.812000",
                "080000.812000",
                "080000.828000",
