{"AcquisitionMatrixPE": 96, "AcquisitionNumber": 1, "AcquisitionTime": "07:36:20.145000", "BaseResolution": 96, "BodyPartExamined": "BRAIN", "ConsistencyInfo": "N4_VD11D_LATEST_20110129", "ConversionSoftware": "dcm2niix", "ConversionSoftwareVersion": "v1.0.20210317", "DeviceSerialNumber": "45239", "DwellTime": 9.2e-06, "EchoNumber": 2, "EchoTime": 0.00738, "EchoTime1": 0.00492, "EchoTime2": 0.00738, "FlipAngle": 50, "ImageOrientationPatientDICOM": [0.999783, -0.0183968, 0.00982298, 0.0208551, 0.881935, -0.470909], "ImageType": ["ORIGINAL", "PRIMARY", "P", "ND", "PHASE"], "ImagingFrequency": 123.193, "InPlanePhaseEncodingDirectionDICOM": "COL", "InstitutionAddress": "E 24th St. 100,Austin,Southmiddle,US,78712", "InstitutionName": "Univ of Texas at Austin", "InstitutionalDepartmentName": "IRC", "MRAcquisitionType": "2D", "MagneticFieldStrength": 3, "Manufacturer": "Siemens", "ManufacturersModelName": "Skyra", "Modality": "MR", "PartialFourier": 1, "PatientPosition": "HFS", "PercentPhaseFOV": 100, "PercentSampling": 100, "PhaseEncodingDirection": "j-", "PhaseEncodingSteps": 96, "PhaseResolution": 1, "PixelBandwidth": 565, "ProcedureStepDescription": "Poldrack2^self-scanning", "ProtocolName": "gre_field_mapping", "PulseSequenceDetails": "%SiemensSeq%\\gre_field_mapping", "ReceiveCoilActiveElements": "HEA;HEP", "ReceiveCoilName": "Head_32", "ReconMatrixPE": 96, "RepetitionTime": 0.731, "SAR": 0.106374, "ScanningSequence": "GR", "SequenceName": "*fm2d2r", "SequenceVariant": "SP", "SeriesDescription": "gre_field_mapping", "SeriesNumber": 11, "ShimSetting": [-2763, 8039, -15462, 242, -193, 152, 231, -83], "SliceThickness": 2, "SliceTiming": [0.36719, 0, 0.375, 0.00781, 0.38281, 0.01562, 0.39844, 0.03125, 0.40625, 0.03906, 0.41406, 0.05469, 0.42969, 0.0625, 0.4375, 0.07031, 0.44531, 0.08594, 0.46094, 0.09375, 0.46875, 0.10938, 0.48438, 0.11719, 0.49219, 0.125, 0.5, 0.14062, 0.51562, 0.14844, 0.52344, 0.15625, 0.53906, 0.17188, 0.54688, 0.17969, 0.55469, 0.1875, 0.57031, 0.20312, 0.57812, 0.21094, 0.58594, 0.22656, 0.60156, 0.23438, 0.60938, 0.25, 0.625, 0.25781, 0.63281, 0.26562, 0.64062, 0.27344, 0.65625, 0.28906, 0.66406, 0.29688, 0.67969, 0.3125, 0.6875, 0.32031, 0.69531, 0.32812, 0.70312, 0.34375, 0.71875, 0.35156], "SoftwareVersions": "syngo MR D11", "SpacingBetweenSlices": 2.4, "StationName": "AWP45239", "TxRefAmp": 329.068, "dcmmeta_affine": [[-2.3953120708465576, 0.049965228885412216, 0.0, 115.75189971923828], [0.04407566785812378, 2.112969160079956, -1.1304283142089844, -77.32864379882812], [0.023534217849373817, 1.128220558166504, 2.1171035766601562, -102.34923553466797], [0.0, 0.0, 0.0, 1.0]], "dcmmeta_reorient_transform": [[0.0, -1.0, 0.0, 95.0], [1.0, 0.0, 0.0, 0.0], [0.0, 0.0, -1.0, 67.0], [0.0, 0.0, 0.0, 1.0]], "dcmmeta_shape": [96, 96, 68], "dcmmeta_slice_dim": 2, "dcmmeta_version": 0.6, "global": {"const": {"AcquisitionMatrix": [96, 0, 0, 96], "AcquisitionNumber": 1, "AngioFlag": "N", "BitsAllocated": 16, "BitsStored": 12, "BodyPartExamined": "BRAIN", "Columns": 96, "EchoNumbers": 2, "EchoTime": 7.38, "EchoTrainLength": 0, "FlipAngle": 50.0, "HighBit": 11, "ImageOrientationPatient": [0.99978250975091, -0.0183968010518, 0.00982297853127, 0.02085505205381, 0.88193500918265, -0.4709094460529], "ImageType": ["ORIGINAL", "PRIMARY", "P", "ND"], "ImagedNucleus": "1H", "ImagingFrequency": 123.193343, "InPlanePhaseEncodingDirection": "COL", "MRAcquisitionType": "2D", "MagneticFieldStrength": 3.0, "Manufacturer": "SIEMENS", "ManufacturerModelName": "Skyra", "Modality": "MR", "NumberOfAverages": 1.0, "NumberOfPhaseEncodingSteps": 96, "PercentPhaseFieldOfView": 100.0, "PercentSampling": 100.0, "PerformedProcedureStepStartTime": "070745.093000", "PhotometricInterpretation": "MONOCHROME2", "PixelBandwidth": 565.0, "PixelRepresentation": 0, "PixelSpacing": [2.3958332538605, 2.3958332538605], "ProtocolName": "gre_field_mapping", "RepetitionTime": 731.0, "RescaleIntercept": -4096.0, "RescaleSlope": 2.0, "RescaleType": "US", "Rows": 96, "SAR": 0.10637427888854, "SamplesPerPixel": 1, "ScanningSequence": "GR", "SequenceName": "*fm2d2r", "SequenceVariant": "SP", "SeriesDescription": "gre_field_mapping", "SeriesNumber": 11, "SeriesTime": "073842.015000", "SliceThickness": 2.0, "SoftwareVersions": "syngo MR D11", "SpacingBetweenSlices": 2.4, "SpecificCharacterSet": "ISO_IR 100", "StudyID": "1", "StudyTime": "070745.062000", "TransmitCoilName": "Body", "VariableFlipAngleFlag": "N", "WindowCenterWidthExplanation": "Algo1", "dBdt": 0.0}, "slices": {"AcquisitionTime": ["073620.145000", "073619.780000", "073620.155000", "073619.790000", "073620.165000", "073619.800000", "073620.177500", "073619.812500", "073620.187500", "073619.822500", "073620.197500", "073619.832500", "073620.210000", "073619.842500", "073620.220000", "073619.855000", "073620.230000", "073619.865000", "073620.242500", "073619.875000", "073620.252500", "073619.887500", "073620.262500", "073619.897500", "073620.272500", "073619.907500", "073620.285000", "073619.920000", "073620.295000", "073619.930000", "073620.305000", "073619.940000", "073620.317500", "073619.950000", "073620.327500", "073619.962500", "073620.337500", "073619.972500", "073620.350000", "073619.982500", "073620.360000", "073619.995000", "073620.370000", "073620.005000", "073620.380000", "073620.015000", "073620.392500", "073620.027500", "073620.402500", "073620.037500", "073620.412500", "073620.047500", "073620.425000", "073620.057500", "073620.435000", "073620.070000", "073620.445000", "073620.080000", "073620.457500", "073620.090000", "073620.467500", "073620.102500", "073620.477500", "073620.112500", "073620.487500", "073620.122500", "073620.500000", "073620.135000"], "ContentTime": ["073842.156000", "073842.015000", "073842.156000", "073842.015000", "073842.156000", "073842.015000", "073842.156000", "073842.015000", "073842.156000", "073842.031000", "073842.156000", "073842.031000", "073842.171000", "073842.031000", "073842.171000", "073842.093000", "073842.171000", "073842.093000", "073842.187000", "073842.093000", "073842.187000", "073842.093000", "073842.187000", "073842.093000", "073842.187000", "073842.109000", "073842.187000", "073842.109000", "073842.187000", "073842.109000", "073842.187000", "073842.109000", "073842.203000", "073842.109000", "073842.203000", "073842.109000", "073842.203000", "073842.109000", "073842.203000", "073842.109000", "073842.203000", "073842.125000", "073842.203000", "073842.125000", "073842.203000", "073842.125000", "073842.203000", "073842.125000", "073842.218000", "073842.125000", "073842.218000", "073842.125000", "073842.218000", "073842.125000", "073842.218000", "073842.125000", "073842.218000", "073842.140000", "073842.218000", "073842.140000", "073842.218000", "073842.140000", "073842.218000", "073842.140000", "073842.234000", "073842.140000", "073842.234000", "073842.156000"], "CsaImage.GSWDDataType": ["predicted", "predicted", "predicted", "predicted", "predicted", "predicted", "predicted", "predicted", "predicted", "predicted", "predicted", "predicted", "predicted", "predicted", "predicted", "predicted", "measured", "predicted", "measured", "predicted", "measured", "predicted", "measured", "predicted", "measured", "predicted", "measured", "predicted", "measured", "predicted", "measured", "predicted", "measured", "predicted", "measured", "predicted", "measured", "predicted", "measured", "predicted", "measured", "predicted", "measured", "predicted", "measured", "predicted", "measured", "predicted", "measured", "predicted", "measured", "predicted", "measured", "predicted", "measured", "predicted", "measured", "predicted", "measured", "predicted", "measured", "predicted", "measured", "predicted", "measured", "predicted", "measured", "predicted"], "CsaImage.ICE_Dims": ["X_2_1_1_1_1_1_35_1_1_1_1_65", "X_2_1_1_1_1_1_1_1_1_2_1_65", "X_2_1_1_1_1_1_36_1_1_3_1_65", "X_2_1_1_1_1_1_2_1_1_4_1_65", "X_2_1_1_1_1_1_37_1_1_5_1_65", "X_2_1_1_1_1_1_3_1_1_6_1_65", "X_2_1_1_1_1_1_38_1_1_7_1_65", "X_2_1_1_1_1_1_4_1_1_8_1_65", "X_2_1_1_1_1_1_39_1_1_9_1_65", "X_2_1_1_1_1_1_5_1_1_10_1_65", "X_2_1_1_1_1_1_40_1_1_11_1_65", "X_2_1_1_1_1_1_6_1_1_12_1_65", "X_2_1_1_1_1_1_41_1_1_13_1_65", "X_2_1_1_1_1_1_7_1_1_14_1_65", "X_2_1_1_1_1_1_42_1_1_15_1_65", "X_2_1_1_1_1_1_8_1_1_16_1_65", "X_2_1_1_1_1_1_43_1_1_17_1_65", "X_2_1_1_1_1_1_9_1_1_18_1_65", "X_2_1_1_1_1_1_44_1_1_19_1_65", "X_2_1_1_1_1_1_10_1_1_20_1_65", "X_2_1_1_1_1_1_45_1_1_21_1_65", "X_2_1_1_1_1_1_11_1_1_22_1_65", "X_2_1_1_1_1_1_46_1_1_23_1_65", "X_2_1_1_1_1_1_12_1_1_24_1_65", "X_2_1_1_1_1_1_47_1_1_25_1_65", "X_2_1_1_1_1_1_13_1_1_26_1_65", "X_2_1_1_1_1_1_48_1_1_27_1_65", "X_2_1_1_1_1_1_14_1_1_28_1_65", "X_2_1_1_1_1_1_49_1_1_29_1_65", "X_2_1_1_1_1_1_15_1_1_30_1_65", "X_2_1_1_1_1_1_50_1_1_31_1_65", "X_2_1_1_1_1_1_16_1_1_32_1_65", "X_2_1_1_1_1_1_51_1_1_33_1_65", "X_2_1_1_1_1_1_17_1_1_34_1_65", "X_2_1_1_1_1_1_52_1_1_35_1_65", "X_2_1_1_1_1_1_18_1_1_36_1_65", "X_2_1_1_1_1_1_53_1_1_37_1_65", "X_2_1_1_1_1_1_19_1_1_38_1_65", "X_2_1_1_1_1_1_54_1_1_39_1_65", "X_2_1_1_1_1_1_20_1_1_40_1_65", "X_2_1_1_1_1_1_55_1_1_41_1_65", "X_2_1_1_1_1_1_21_1_1_42_1_65", "X_2_1_1_1_1_1_56_1_1_43_1_65", "X_2_1_1_1_1_1_22_1_1_44_1_65", "X_2_1_1_1_1_1_57_1_1_45_1_65", "X_2_1_1_1_1_1_23_1_1_46_1_65", "X_2_1_1_1_1_1_58_1_1_47_1_65", "X_2_1_1_1_1_1_24_1_1_48_1_65", "X_2_1_1_1_1_1_59_1_1_49_1_65", "X_2_1_1_1_1_1_25_1_1_50_1_65", "X_2_1_1_1_1_1_60_1_1_51_1_65", "X_2_1_1_1_1_1_26_1_1_52_1_65", "X_2_1_1_1_1_1_61_1_1_53_1_65", "X_2_1_1_1_1_1_27_1_1_54_1_65", "X_2_1_1_1_1_1_62_1_1_55_1_65", "X_2_1_1_1_1_1_28_1_1_56_1_65", "X_2_1_1_1_1_1_63_1_1_57_1_65", "X_2_1_1_1_1_1_29_1_1_58_1_65", "X_2_1_1_1_1_1_64_1_1_59_1_65", "X_2_1_1_1_1_1_30_1_1_60_1_65", "X_2_1_1_1_1_1_65_1_1_61_1_65", "X_2_1_1_1_1_1_31_1_1_62_1_65", "X_2_1_1_1_1_1_66_1_1_63_1_65", "X_2_1_1_1_1_1_32_1_1_64_1_65", "X_2_1_1_1_1_1_67_1_1_65_1_65", "X_2_1_1_1_1_1_33_1_1_66_1_65", "X_2_1_1_1_1_1_68_1_1_67_1_65", "X_2_1_1_1_1_1_34_1_1_68_1_65"], "CsaImage.ProtocolSliceNumber": [0, 1, 2, 3, 4, 5, 6, 7, 8, 9, 10, 11, 12, 13, 14, 15, 16, 17, 18, 19, 20, 21, 22, 23, 24, 25, 26, 27, 28, 29, 30, 31, 32, 33, 34, 35, 36, 37, 38, 39, 40, 41, 42, 43, 44, 45, 46, 47, 48, 49, 50, 51, 52, 53, 54, 55, 56, 57, 58, 59, 60, 61, 62, 63, 64, 65, 66, 67], "CsaImage.RFSWDDataType": ["predicted", "predicted", "predicted", "predicted", "predicted", "predicted", "predicted", "predicted", "predicted", "predicted", "predicted", "predicted", "predicted", "predicted", "measured", "predicted", "measured", "predicted", "measured", "predicted", "measured", "predicted", "measured", "predicted", "measured", "predicted", "measured", "predicted", "measured", "predicted", "measured", "predicted", "measured", "predicted", "measured", "predicted", "measured", "predicted", "measured", "predicted", "measured", "predicted", "measured", "predicted", "measured", "predicted", "measured", "predicted", "measured", "predicted", "measured", "predicted", "measured", "predicted", "measured", "predicted", "measured", "predicted", "measured", "predicted", "measured", "predicted", "measured", "predicted", "measured", "predicted", "measured", "predicted"], "CsaImage.SlicePosition_PCS": [[-120.49859252, -123.40344444, 4.83165511], [-120.49859252, -122.27301613, 6.94875869], [-120.49859252, -121.14258781, 9.06586226], [-120.49859252, -120.0121595, 11.18296584], [-120.49859252, -118.88173119, 13.30007323], [-120.49859252, -117.75130287, 15.41717681], [-120.49859252, -116.62087456, 17.53428038], [-120.49859252, -115.49044624, 19.65138396], [-120.49859252, -114.36001698, 21.76848945], [-120.49859252, -113.22958866, 23.88559493], [-120.49859252, -112.09915939, 26.00269851], [-120.49859252, -110.96873108, 28.11980399], [-120.49859252, -109.83830277, 30.23690757], [-120.49859252, -108.70787445, 32.35401114], [-120.49859252, -107.57744614, 34.47111663], [-120.49859252, -106.44701735, 36.5882202], [-120.49859252, -105.31658856, 38.70532569], [-120.49859252, -104.18616024, 40.82243022], [-120.49859252, -103.05573169, 42.93953475], [-120.49859252, -101.92530314, 45.0566388], [-120.49859252, -100.79487458, 47.17374333], [-120.49859252, -99.66444609, 49.29084786], [-120.49859252, -98.53401754, 51.40795227], [-120.49859252, -97.40358904, 53.5250568], [-120.49859252, -96.27316061, 55.64216122], [-120.49859252, -95.14273182, 57.75926551], [-120.49859252, -94.01230351, 59.87637004], [-120.49859252, -92.88187519, 61.99347457], [-120.49859252, -91.7514464, 64.1105791], [-120.49859252, -90.62101761, 66.22768363], [-120.49859252, -89.4905893, 68.34478816], [-120.49859252, -88.36016098, 70.46189269], [-120.49859252, -87.22973267, 72.57899627], [-120.49859252, -86.09930435, 74.69610175], [-120.49859252, -84.96887508, 76.81320533], [-120.49859252, -83.83844677, 78.93031081], [-120.49859252, -82.7080175, 81.04741439], [-120.49859252, -81.57758919, 83.16451987], [-120.49859252, -80.44716087, 85.28162536], [-120.49859252, -79.31673256, 87.39872893], [-120.49859252, -78.18630425, 89.51583251], [-120.49859252, -77.05587593, 91.63293609], [-120.49859252, -75.92544762, 93.75004348], [-120.49859252, -74.7950193, 95.86714705], [-120.49859252, -73.66459099, 97.98425063], [-120.49859252, -72.53416077, 100.10135421], [-120.49859252, -71.40373245, 102.2184616], [-120.49859252, -70.27330414, 104.33556518], [-120.49859252, -69.14287582, 106.45266875], [-120.49859252, -68.01244751, 108.56977233], [-120.49859252, -66.88201729, 110.68687591], [-120.49859252, -65.75158897, 112.8039833], [-120.49859252, -64.62116066, 114.92108687], [-120.49859252, -63.49073235, 117.03819426], [-120.49859252, -62.36030403, 119.15529784], [-120.49859252, -61.22987572, 121.27240142], [-120.49859252, -60.0994474, 123.38950499], [-120.49859252, -58.96901909, 125.50660857], [-120.49859252, -57.83859078, 127.62371215], [-120.49859252, -56.70816246, 129.74081572], [-120.49859252, -55.57773415, 131.8579193], [-120.49859252, -54.44730583, 133.97503051], [-120.49859252, -53.31687752, 136.09213408], [-120.49859252, -52.1864492, 138.20923766], [-120.49859252, -51.05602089, 140.32634124], [-120.49859252, -49.92559258, 142.44344481], [-120.49859252, -48.79516426, 144.56054839], [-120.49859252, -47.66473595, 146.67765197]], "CsaImage.TimeAfterStart": [1.0975, 0.7325, 1.11, 0.7425, 1.12, 0.755, 1.13, 0.765, 1.14, 0.775, 1.1525, 0.7875, 1.1625, 0.7975, 1.1725, 0.8075, 1.185, 0.8175, 1.195, 0.83, 1.205, 0.84, 1.2175, 0.85, 1.2275, 0.8625, 1.2375, 0.8725, 1.2475, 0.8825, 1.26, 0.895, 1.27, 0.905, 1.28, 0.915, 1.2925, 0.925, 1.3025, 0.9375, 1.3125, 0.9475, 1.325, 0.9575, 1.335, 0.97, 1.345, 0.98, 1.355, 0.99, 1.3675, 1.0025, 1.3775, 1.0125, 1.3875, 1.0225, 1.4, 1.0325, 1.41, 1.045, 1.42, 1.055, 1.4325, 1.065, 1.4425, 1.0775, 1.4525, 1.0875], "ImagePositionPatient": [[-120.49859251809, -123.4034444434, 4.8316551103276], [-120.49859251809, -122.27301612919, 6.9487586869878], [-120.49859251809, -121.14258781498, 9.0658622636479], [-120.49859251809, -120.01215950077, 11.182965840308], [-120.49859251809, -118.88173118656, 13.300073231665], [-120.49859251809, -117.75130287235, 15.417176808326], [-120.49859251809, -116.62087455814, 17.534280384986], [-120.49859251809, -115.49044624393, 19.651383961646], [-120.49859251809, -114.36001697605, 21.768489445655], [-120.49859251809, -113.22958866184, 23.885594929664], [-120.49859251809, -112.09915939396, 26.002698506324], [-120.49859251809, -110.96873107975, 28.119803990332], [-120.49859251809, -109.83830276554, 30.236907566993], [-120.49859251809, -108.70787445133, 32.354011143653], [-120.49859251809, -107.57744613712, 34.471116627662], [-120.49859251809, -106.44701734607, 36.588220204322], [-120.49859251809, -105.31658855503, 38.705325688331], [-120.49859251809, -104.18616024082, 40.822430218665], [-120.49859251809, -103.05573168819, 42.939534748999], [-120.49859251809, -101.92530313556, 45.056638802497], [-120.49859251809, -100.79487458294, 47.173743332831], [-120.49859251809, -99.664446089914, 49.290847863166], [-120.49859251809, -98.534017537287, 51.407952274291], [-120.49859251809, -97.403589044264, 53.525056804625], [-120.49859251809, -96.273160610845, 55.642161215751], [-120.49859251809, -95.142731819799, 57.759265507666], [-120.49859251809, -94.01230350559, 59.876370038001], [-120.49859251809, -92.881875191381, 61.993474568335], [-120.49859251809, -91.751446400335, 64.11057909867], [-120.49859251809, -90.621017609289, 66.227683629004], [-120.49859251809, -89.49058929508, 68.344788159339], [-120.49859251809, -88.360160980871, 70.461892689673], [-120.49859251809, -87.229732666662, 72.578996266333], [-120.49859251809, -86.099304352453, 74.696101750342], [-120.49859251809, -84.96887508457, 76.813205327002], [-120.49859251809, -83.838446770361, 78.930310811011], [-120.49859251809, -82.708017502478, 81.047414387671], [-120.49859251809, -81.577589188269, 83.16451987168], [-120.49859251809, -80.44716087406, 85.281625355689], [-120.49859251809, -79.316732559851, 87.398728932349], [-120.49859251809, -78.186304245642, 89.515832509009], [-120.49859251809, -77.055875931433, 91.632936085669], [-120.49859251809, -75.925447617224, 93.750043477027], [-120.49859251809, -74.795019303015, 95.867147053687], [-120.49859251809, -73.664590988806, 97.984250630347], [-120.49859251809, -72.534160767248, 100.10135420701], [-120.49859251809, -71.403732453039, 102.21846159836], [-120.49859251809, -70.27330413883, 104.33556517502], [-120.49859251809, -69.142875824621, 106.45266875169], [-120.49859251809, -68.012447510412, 108.56977232835], [-120.49859251809, -66.882017288854, 110.68687590501], [-120.49859251809, -65.751588974646, 112.80398329636], [-120.49859251809, -64.621160660437, 114.92108687302], [-120.49859251809, -63.490732346228, 117.03819426438], [-120.49859251809, -62.360304032019, 119.15529784104], [-120.49859251809, -61.22987571781, 121.2724014177], [-120.49859251809, -60.099447403601, 123.38950499436], [-120.49859251809, -58.969019089392, 125.50660857102], [-120.49859251809, -57.838590775183, 127.62371214768], [-120.49859251809, -56.708162460974, 129.74081572434], [-120.49859251809, -55.577734146765, 131.857919301], [-120.49859251809, -54.447305832556, 133.97503050706], [-120.49859251809, -53.316877518347, 136.09213408372], [-120.49859251809, -52.186449204138, 138.20923766038], [-120.49859251809, -51.056020889929, 140.32634123704], [-120.49859251809, -49.92559257572, 142.4434448137], [-120.49859251809, -48.795164261511, 144.56054839036], [-120.49859251809, -47.664735947302, 146.67765196702]], "InstanceCreationTime": ["073842.156000", "073842.015000", "073842.156000", "073842.015000", "073842.156000", "073842.015000", "073842.156000", "073842.015000", "073842.156000", "073842.031000", "073842.156000", "073842.031000", "073842.171000", "073842.031000", "073842.171000", "073842.093000", "073842.171000", "073842.093000", "073842.187000", "073842.093000", "073842.187000", "073842.093000", "073842.187000", "073842.093000", "073842.187000", "073842.109000", "073842.187000", "073842.109000", "073842.187000", "073842.109000", "073842.187000", "073842.109000", "073842.203000", "073842.109000", "073842.203000", "073842.109000", "073842.203000", "073842.109000", "073842.203000", "073842.109000", "073842.203000", "073842.125000", "073842.203000", "073842.125000", "073842.203000", "073842.125000", "073842.203000", "073842.125000", "073842.218000", "073842.125000", "073842.218000", "073842.125000", "073842.218000", "073842.125000", "073842.218000", "073842.125000", "073842.218000", "073842.140000", "073842.218000", "073842.140000", "073842.218000", "073842.140000", "073842.218000", "073842.140000", "073842.234000", "073842.140000", "073842.234000", "073842.156000"], "InstanceNumber": [1, 2, 3, 4, 5, 6, 7, 8, 9, 10, 11, 12, 13, 14, 15, 16, 17, 18, 19, 20, 21, 22, 23, 24, 25, 26, 27, 28, 29, 30, 31, 32, 33, 34, 35, 36, 37, 38, 39, 40, 41, 42, 43, 44, 45, 46, 47, 48, 49, 50, 51, 52, 53, 54, 55, 56, 57, 58, 59, 60, 61, 62, 63, 64, 65, 66, 67, 68], "LargestImagePixelValue": [4094, 4094, 4094, 4094, 4094, 4093, 4093, 4094, 4094, 4094, 4094, 4093, 4091, 4094, 4094, 4092, 4094, 4094, 4090, 4094, 4092, 4090, 4094, 4087, 4089, 4092, 4094, 4094, 4093, 4092, 4093, 4094, 4094, 4094, 4094, 4093, 4088, 4094, 4091, 4094, 4094, 4094, 4094, 4094, 4093, 4091, 4091, 4092, 4093, 4094, 4089, 4094, 4094, 4094, 4093, 4094, 4094, 4093, 4094, 4094, 4094, 4094, 4094, 4093, 4094, 4094, 4094, 4094], "SliceLocation": [-53.862356257138, -51.462357147164, -49.062358037191, -46.662358927218, -44.262356452198, -41.862357342224, -39.462358232251, -37.062359122278, -34.662357880589, -32.262357088092, -29.862357528927, -27.46235673643, -25.062357626457, -22.662358516484, -20.262357723987, -17.862358389418, -15.462357372325, -13.06235742109, -10.662357357557, -8.2623577146549, -5.8623576511219, -3.4623576156634, -1.0623576572882, 1.3376423781703, 3.7376422803966, 6.1376422459122, 8.5376421971472, 10.937642148382, 13.337642324213, 15.737642500044, 18.137642451279, 20.537642402514, 22.937641512487, 25.337642304984, 27.737641864149, 30.137642656646, 32.537642215811, 34.937643008308, 37.337643800805, 39.737642910778, 42.137642020751, 44.537641130725, 46.937643605745, 49.337642715718, 51.737641825692, 54.137641834049, 56.537644309069, 58.937643419042, 61.337642529015, 63.737641638989, 66.137641647346, 68.537644122366, 70.937643232339, 73.33764570736, 75.737644817333, 78.137643927306, 80.537643037279, 82.937642147253, 85.337641257226, 87.737640367199, 90.137639477173, 92.53764531724, 94.937644427213, 97.337643537186, 99.73764264716, 102.13764175713, 104.53764086711, 106.93763997708], "SmallestImagePixelValue": [0, 1, 0, 0, 0, 0, 1, 0, 4, 0, 0, 1, 0, 0, 3, 0, 2, 1, 0, 0, 0, 1, 1, 3, 1, 1, 1, 1, 0, 2, 0, 3, 1, 2, 2, 0, 0, 0, 0, 3, 0, 0, 0, 3, 3, 3, 0, 1, 1, 0, 1, 1, 1, 3, 1, 1, 1, 2, 1, 0, 0, 0, 2, 0, 0, 0, 0, 1], "WindowCenter": [-188.0, -182.0, -232.0, -208.0, -220.0, -228.0, -308.0, -344.0, -614.0, -634.0, -542.0, -558.0, -578.0, -538.0, -562.0, -508.0, -446.0, -440.0, -496.0, -470.0, -444.0, -438.0, -450.0, -400.0, -358.0, -330.0, -326.0, -302.0, -306.0, -270.0, -286.0, -292.0, -336.0, -282.0, -226.0, -150.0, -120.0, -132.0, -130.0, -136.0, -142.0, -142.0, -128.0, -140.0, -152.0, -108.0, -146.0, -148.0, -122.0, -142.0, -184.0, -206.0, -252.0, -274.0, -282.0, -232.0, -274.0, -262.0, -282.0, -334.0, -322.0, -368.0, -366.0, -392.0, -416.0, -434.0, -438.0, -434.0], "WindowWidth": [5962.0, 6048.0, 6050.0, 6144.0, 6290.0, 6246.0, 6132.0, 5856.0, 4910.0, 4898.0, 4898.0, 4882.0, 4868.0, 4838.0, 4746.0, 4708.0, 4678.0, 4642.0, 4564.0, 4534.0, 4474.0, 4460.0, 4386.0, 4292.0, 4290.0, 4244.0, 4188.0, 4146.0, 4074.0, 4024.0, 3972.0, 3948.0, 3956.0, 3998.0, 4050.0, 4074.0, 4108.0, 4130.0, 4144.0, 4186.0, 4198.0, 4248.0, 4206.0, 4218.0, 4224.0, 4220.0, 4224.0, 4242.0, 4226.0, 4236.0, 4244.0, 4244.0, 4308.0, 4314.0, 4318.0, 4354.0, 4382.0, 4446.0, 4494.0, 4518.0, 4600.0, 4666.0, 4730.0, 4822.0, 4838.0, 4910.0, 4980.0, 5000.0]}}}