{"AcquisitionMatrixPE": 96, "AcquisitionNumber": 1, "AcquisitionTime": "07:56:22.520000", "BandwidthPerPixelPhaseEncode": 33.602, "BaseResolution": 96, "BodyPartExamined": "BRAIN", "ConsistencyInfo": "N4_VD13A_LATEST_20120616", "ConversionSoftware": "dcm2niix", "ConversionSoftwareVersion": "v1.0.20210317", "DerivedVendorReportedEchoSpacing": 0.000620003, "DeviceSerialNumber": "45239", "DwellTime": 2.6e-06, "EchoTime": 0.03, "EchoTrainLength": 47, "EffectiveEchoSpacing": 0.000310001, "FlipAngle": 63, "ImageComments": "Unaliased MB4/PE3", "ImageOrientationPatientDICOM": [0.999922, -0.0113215, -0.00527334, 0.00680636, 0.847991, -0.529967], "ImageType": ["ORIGINAL", "PRIMARY", "M", "ND", "NORM", "MOSAIC"], "ImagingFrequency": 123.191, "InPlanePhaseEncodingDirectionDICOM": "COL", "InstitutionAddress": "E 24th St. 100,Austin,Southmiddle,US,78712", "InstitutionName": "The Univ. of Texas at Austin IRC", "InstitutionalDepartmentName": "IRC", "MRAcquisitionType": "2D", "MagneticFieldStrength": 3, "Manufacturer": "Siemens", "ManufacturersModelName": "Skyra", "Modality": "MR", "MultibandAccelerationFactor": 4, "ParallelReductionFactorInPlane": 2, "PartialFourier": 1, "PatientPosition": "HFS", "PercentPhaseFOV": 100, "PercentSampling": 100, "PhaseEncodingDirection": "j-", "PhaseEncodingSteps": 95, "PhaseResolution": 1, "PixelBandwidth": 2005, "ProcedureStepDescription": "Poldrack2^self-scanning", "ProtocolName": "loc_hard_easy", "PulseSequenceDetails": "%CustomerSeq%\\cmrr_mbep2d_bold", "ReceiveCoilActiveElements": "HEA;HEP", "ReceiveCoilName": "Head_32", "ReconMatrixPE": 96, "RefLinesPE": 48, "RepetitionTime": 1.16, "SAR": 0.113561, "ScanOptions": "FS", "ScanningSequence": "EP", "SequenceName": "epfid2d1_96", "SequenceVariant": "SK", "SeriesDescription": "loc_hard_easy", "SeriesNumber": 10, "ShimSetting": [-2977, 8277, -15342, -681, 49, -506, 329, 125], "SliceThickness": 2, "SliceTiming": [0, 0.4975, 0.9975, 0.355, 0.855, 0.2125, 0.7125, 0.07, 0.57, 1.0675, 0.4275, 0.925, 0.285, 0.7825, 0.1425, 0.64, 0, 0.4975, 0.9975, 0.355, 0.855, 0.2125, 0.7125, 0.07, 0.57, 1.0675, 0.4275, 0.925, 0.285, 0.7825, 0.1425, 0.64, 0, 0.4975, 0.9975, 0.355, 0.855, 0.2125, 0.7125, 0.07, 0.57, 1.0675, 0.4275, 0.925, 0.285, 0.7825, 0.1425, 0.64, 0, 0.4975, 0.9975, 0.355, 0.855, 0.2125, 0.7125, 0.07, 0.57, 1.0675, 0.4275, 0.925, 0.285, 0.7825, 0.1425, 0.64], "SoftwareVersions": "syngo MR D13", "SpacingBetweenSlices": 2.4, "StationName": "AWP45239", "TaskName": "Spatial working memory task", "TotalReadoutTime": 0.0294501, "TxRefAmp": 336.316, "WipMemBlock": "b5b1da90-f7e3-4f3a-bdef-dd2557a294c9||Sequence: vd13a/R010 r/fd129fc; Dec 13 2013 16:14:27 by eja", "dcmmeta_affine": [[-2.395646333694458, 0.016306893900036812, -0.025132250040769577, 114.47606658935547], [0.027124421671032906, 2.031644344329834, -1.2717365026474, -80.24210357666016], [-0.01263404916971922, 1.2697136402130127, 2.035203695297241, -87.57257080078125], [0.0, 0.0, 0.0, 1.0]], "dcmmeta_reorient_transform": [[0.0, -1.0, 0.0, 95.0], [1.0, 0.0, 0.0, 0.0], [0.0, 0.0, 1.0, 0.0], [0.0, 0.0, 0.0, 1.0]], "dcmmeta_shape": [96, 96, 64, 387], "dcmmeta_slice_dim": 2, "dcmmeta_version": 0.6, "global": {"const": {"AcquisitionMatrix": [96, 0, 0, 96], "AngioFlag": "N", "BitsAllocated": 16, "BitsStored": 16, "BodyPartExamined": "BRAIN", "Columns": 768, "DeidentificationMethodCodeSequence": [{"CodeMeaning": "XNAT Edit Script", "CodeValue": "93", "CodingSchemeDesignator": "XNAT", "CodingSchemeVersion": "0.1"}], "EchoNumbers": 1, "EchoTime": 30.0, "EchoTrainLength": 47, "FlipAngle": 63.0, "HighBit": 15, "ImageOrientationPatient": [0.9999220047273, -0.0113214981499, -0.0052733425631, 0.00680635581878, 0.84799067304326, -0.5299674442379], "ImagePositionPatient": [-926.44152618086, -786.28276121229, 463.91904513567], "ImageType": ["ORIGINAL", "PRIMARY", "M", "ND", "NORM", "MOSAIC"], "ImagedNucleus": "1H", "ImagingFrequency": 123.191258, "InPlanePhaseEncodingDirection": "COL", "MRAcquisitionType": "2D", "MagneticFieldStrength": 3.0, "Manufacturer": "SIEMENS", "ManufacturerModelName": "Skyra", "Modality": "MR", "NumberOfAverages": 1.0, "NumberOfPhaseEncodingSteps": 95, "PercentPhaseFieldOfView": 100.0, "PercentSampling": 100.0, "PerformedProcedureStepStartTime": "072453.312000", "PhotometricInterpretation": "MONOCHROME2", "PixelBandwidth": 2005.0, "PixelRepresentation": 0, "PixelSpacing": [2.3958332538605, 2.3958332538605], "ProtocolName": "loc_hard_easy", "RepetitionTime": 1160.0, "Rows": 768, "SAR": 0.11356058922557, "SamplesPerPixel": 1, "ScanOptions": "FS", "ScanningSequence": "EP", "SequenceName": "epfid2d1_96", "SequenceVariant": "SK", "SeriesDescription": "loc_hard_easy", "SeriesNumber": 10, "SeriesTime": "075659.513000", "SliceLocation": -32.940937466304, "SliceThickness": 2.0, "SmallestImagePixelValue": 0, "SoftwareVersions": "syngo MR D13", "SpacingBetweenSlices": 2.3999999868863, "SpecificCharacterSet": "ISO_IR 100", "StudyID": "1", "StudyTime": "072453.257000", "TransmitCoilName": "Body", "VariableFlipAngleFlag": "N", "WindowCenterWidthExplanation": "Algo1", "dBdt": 0.0}, "slices": {}}, "time": {"samples": {"AcquisitionNumber": [1, 2, 3, 4, 5, 6, 7, 8, 9, 10, 11, 12, 13, 14, 15, 16, 17, 18, 19, 20, 21, 22, 23, 24, 25, 26, 27, 28, 29, 30, 31, 32, 33, 34, 35, 36, 37, 38, 39, 40, 41, 42, 43, 44, 45, 46, 47, 48, 49, 50, 51, 52, 53, 54, 55, 56, 57, 58, 59, 60, 61, 62, 63, 64, 65, 66, 67, 68, 69, 70, 71, 72, 73, 74, 75, 76, 77, 78, 79, 80, 81, 82, 83, 84, 85, 86, 87, 88, 89, 90, 91, 92, 93, 94, 95, 96, 97, 98, 99, 100, 101, 102, 103, 104, 105, 106, 107, 108, 109, 110, 111, 112, 113, 114, 115, 116, 117, 118, 119, 120, 121, 122, 123, 124, 125, 126, 127, 128, 129, 130, 131, 132, 133, 134, 135, 136, 137, 138, 139, 140, 141, 142, 143, 144, 145, 146, 147, 148, 149, 150, 151, 152, 153, 154, 155, 156, 157, 158, 159, 160, 161, 162, 163, 164, 165, 166, 167, 168, 169, 170, 171, 172, 173, 174, 175, 176, 177, 178, 179, 180, 181, 182, 183, 184, 185, 186, 187, 188, 189, 190, 191, 192, 193, 194, 195, 196, 197, 198, 199, 200, 201, 202, 203, 204, 205, 206, 207, 208, 209, 210, 211, 212, 213, 214, 215, 216, 217, 218, 219, 220, 221, 222, 223, 224, 225, 226, 227, 228, 229, 230, 231, 232, 233, 234, 235, 236, 237, 238, 239, 240, 241, 242, 243, 244, 245, 246, 247, 248, 249, 250, 251, 252, 253, 254, 255, 256, 257, 258, 259, 260, 261, 262, 263, 264, 265, 266, 267, 268, 269, 270, 271, 272, 273, 274, 275, 276, 277, 278, 279, 280, 281, 282, 283, 284, 285, 286, 287, 288, 289, 290, 291, 292, 293, 294, 295, 296, 297, 298, 299, 300, 301, 302, 303, 304, 305, 306, 307, 308, 309, 310, 311, 312, 313, 314, 315, 316, 317, 318, 319, 320, 321, 322, 323, 324, 325, 326, 327, 328, 329, 330, 331, 332, 333, 334, 335, 336, 337, 338, 339, 340, 341, 342, 343, 344, 345, 346, 347, 348, 349, 350, 351, 352, 353, 354, 355, 356, 357, 358, 359, 360, 361, 362, 363, 364, 365, 366, 367, 368, 369, 370, 371, 372, 373, 374, 375, 376, 377, 378, 379, 380, 381, 382, 383, 384, 385, 386, 387], "AcquisitionTime": ["075622.520000", "075629.460000", "075630.620000", "075631.780000", "075632.940000", "075634.100000", "075635.260000", "075636.420000", "075637.580000", "075638.740000", "075639.900000", "075641.060000", "075642.220000", "075643.380000", "075644.540000", "075645.700000", "075646.860000", "075648.020000", "075649.180000", "075650.340000", "075651.500000", "075652.660000", "075653.820000", "075654.980000", "075656.140000", "075657.300000", "075658.460000", "075659.620000", "075700.780000", "075701.940000", "075703.100000", "075704.260000", "075705.420000", "075706.580000", "075707.740000", "075708.900000", "075710.060000", "075711.220000", "075712.380000", "075713.540000", "075714.700000", "075715.860000", "075717.020000", "075718.180000", "075719.340000", "075720.500000", "075721.660000", "075722.820000", "075723.980000", "075725.140000", "075726.300000", "075727.460000", "075728.620000", "075729.780000", "075730.940000", "075732.100000", "075733.260000", "075734.420000", "075735.580000", "075736.740000", "075737.900000", "075739.060000", "075740.220000", "075741.380000", "075742.540000", "075743.700000", "075744.860000", "075746.020000", "075747.180000", "075748.340000", "075749.500000", "075750.660000", "075751.820000", "075752.980000", "075754.140000", "075755.300000", "075756.460000", "075757.620000", "075758.780000", "075759.940000", "075801.100000", "075802.260000", "075803.420000", "075804.580000", "075805.740000", "075806.900000", "075808.060000", "075809.220000", "075810.380000", "075811.540000", "075812.700000", "075813.860000", "075815.020000", "075816.180000", "075817.340000", "075818.500000", "075819.660000", "075820.820000", "075821.980000", "075823.140000", "075824.300000", "075825.460000", "075826.620000", "075827.780000", "075828.940000", "075830.100000", "075831.260000", "075832.420000", "075833.580000", "075834.740000", "075835.900000", "075837.060000", "075838.220000", "075839.380000", "075840.540000", "075841.700000", "075842.860000", "075844.020000", "075845.180000", "075846.340000", "075847.500000", "075848.660000", "075849.820000", "075850.980000", "075852.140000", "075853.300000", "075854.460000", "075855.620000", "075856.780000", "075857.940000", "075859.100000", "075900.260000", "075901.420000", "075902.580000", "075903.742500", "075904.902500", "075906.062500", "075907.222500", "075908.382500", "075909.542500", "075910.702500", "075911.862500", "075913.022500", "075914.182500", "075915.342500", "075916.502500", "075917.662500", "075918.822500", "075919.982500", "075921.142500", "075922.302500", "075923.462500", "075924.622500", "075925.782500", "075926.942500", "075928.102500", "075929.262500", "075930.422500", "075931.582500", "075932.742500", "075933.902500", "075935.062500", "075936.222500", "075937.382500", "075938.542500", "075939.702500", "075940.862500", "075942.022500", "075943.182500", "075944.342500", "075945.502500", "075946.662500", "075947.822500", "075948.982500", "075950.142500", "075951.302500", "075952.462500", "075953.622500", "075954.782500", "075955.942500", "075957.102500", "075958.262500", "075959.422500", "080000.582500", "080001.742500", "080002.902500", "080004.062500", "080005.222500", "080006.382500", "080007.542500", "080008.702500", "080009.862500", "080011.022500", "080012.182500", "080013.342500", "080014.502500", "080015.662500", "080016.822500", "080017.982500", "080019.142500", "080020.302500", "080021.462500", "080022.622500", "080023.782500", "080024.942500", "080026.102500", "080027.262500", "080028.422500", "080029.582500", "080030.742500", "080031.902500", "080033.062500", "080034.222500", "080035.382500", "080036.542500", "080037.702500", "080038.862500", "080040.022500", "080041.182500", "080042.342500", "080043.502500", "080044.662500", "080045.822500", "080046.982500", "080048.142500", "080049.302500", "080050.462500", "080051.622500", "080052.782500", "080053.942500", "080055.102500", "080056.262500", "080057.422500", "080058.582500", "080059.742500", "080100.902500", "080102.062500", "080103.222500", "080104.382500", "080105.542500", "080106.702500", "080107.862500", "080109.022500", "080110.182500", "080111.342500", "080112.502500", "080113.662500", "080114.822500", "080115.982500", "080117.142500", "080118.302500", "080119.462500", "080120.622500", "080121.782500", "080122.942500", "080124.102500", "080125.262500", "080126.422500", "080127.582500", "080128.742500", "080129.902500", "080131.062500", "080132.222500", "080133.382500", "080134.542500", "080135.702500", "080136.862500", "080138.022500", "080139.182500", "080140.342500", "080141.502500", "080142.662500", "080143.822500", "080144.982500", "080146.142500", "080147.302500", "080148.462500", "080149.622500", "080150.782500", "080151.942500", "080153.102500", "080154.262500", "080155.422500", "080156.582500", "080157.742500", "080158.902500", "080200.062500", "080201.222500", "080202.382500", "080203.542500", "080204.702500", "080205.862500", "080207.022500", "080208.182500", "080209.342500", "080210.502500", "080211.662500", "080212.822500", "080213.982500", "080215.142500", "080216.302500", "080217.462500", "080218.622500", "080219.782500", "080220.942500", "080222.102500", "080223.262500", "080224.422500", "080225.582500", "080226.742500", "080227.902500", "080229.062500", "080230.222500", "080231.382500", "080232.542500", "080233.702500", "080234.862500", "080236.022500", "080237.182500", "080238.342500", "080239.502500", "080240.662500", "080241.822500", "080242.982500", "080244.142500", "080245.302500", "080246.462500", "080247.622500", "080248.782500", "080249.942500", "080251.102500", "080252.262500", "080253.422500", "080254.582500", "080255.742500", "080256.902500", "080258.062500", "080259.222500", "080300.382500", "080301.542500", "080302.702500", "080303.862500", "080305.022500", "080306.182500", "080307.342500", "080308.502500", "080309.662500", "080310.822500", "080311.982500", "080313.142500", "080314.302500", "080315.462500", "080316.622500", "080317.782500", "080318.942500", "080320.102500", "080321.262500", "080322.422500", "080323.582500", "080324.742500", "080325.902500", "080327.062500", "080328.222500", "080329.382500", "080330.542500", "080331.702500", "080332.862500", "080334.022500", "080335.182500", "080336.342500", "080337.502500", "080338.662500", "080339.822500", "080340.982500", "080342.142500", "080343.302500", "080344.462500", "080345.622500", "080346.782500", "080347.942500", "080349.102500", "080350.262500", "080351.422500", "080352.582500", "080353.745000", "080354.905000", "080356.065000"], "ContentTime": ["075659.517000", "075659.522000", "075659.533000", "075659.537000", "075659.541000", "075659.545000", "075659.549000", "075659.553000", "075659.557000", "075659.561000", "075659.564000", "075659.568000", "075659.572000", "075659.576000", "075659.580000", "075659.584000", "075659.588000", "075659.592000", "075659.601000", "075659.605000", "075659.608000", "075719.484000", "075719.488000", "075719.493000", "075719.496000", "075719.501000", "075719.504000", "075719.508000", "075719.512000", "075719.516000", "075719.520000", "075719.524000", "075719.528000", "075719.532000", "075719.536000", "075719.540000", "075719.544000", "075719.548000", "075719.552000", "075719.556000", "075719.559000", "075759.483000", "075759.487000", "075759.491000", "075759.495000", "075759.499000", "075759.503000", "075759.507000", "075759.511000", "075759.515000", "075759.519000", "075759.522000", "075759.526000", "075759.530000", "075759.534000", "075759.538000", "075759.542000", "075759.546000", "075759.549000", "075759.554000", "075759.557000", "075759.570000", "075759.574000", "075759.581000", "075759.584000", "075759.588000", "075759.592000", "075759.596000", "075759.600000", "075759.604000", "075759.608000", "075759.612000", "075759.616000", "075759.620000", "075759.624000", "075759.628000", "075759.632000", "075839.482000", "075839.487000", "075839.492000", "075839.496000", "075839.500000", "075839.505000", "075839.509000", "075839.512000", "075839.516000", "075839.520000", "075839.524000", "075839.528000", "075839.532000", "075839.536000", "075839.540000", "075839.544000", "075839.548000", "075839.552000", "075839.556000", "075839.560000", "075839.564000", "075839.569000", "075839.573000", "075839.577000", "075839.581000", "075839.584000", "075839.589000", "075839.593000", "075839.596000", "075839.601000", "075839.605000", "075839.609000", "075839.613000", "075839.617000", "075839.621000", "075919.483000", "075919.488000", "075919.492000", "075919.500000", "075919.507000", "075919.512000", "075919.528000", "075919.533000", "075919.537000", "075919.542000", "075919.546000", "075919.551000", "075919.555000", "075919.560000", "075919.565000", "075919.569000", "075919.573000", "075919.577000", "075919.581000", "075919.585000", "075919.589000", "075919.593000", "075919.597000", "075919.601000", "075919.605000", "075919.609000", "075919.613000", "075919.617000", "075919.621000", "075919.625000", "075919.629000", "075919.633000", "075919.637000", "075919.641000", "075959.484000", "075959.489000", "075959.493000", "075959.498000", "075959.502000", "075959.507000", "075959.511000", "075959.516000", "075959.520000", "075959.525000", "075959.529000", "075959.534000", "075959.538000", "075959.543000", "075959.550000", "075959.554000", "075959.558000", "075959.563000", "075959.567000", "075959.571000", "075959.575000", "075959.579000", "075959.583000", "075959.588000", "075959.592000", "075959.596000", "075959.601000", "075959.606000", "075959.610000", "075959.615000", "075959.619000", "075959.623000", "075959.627000", "075959.631000", "075959.636000", "080039.484000", "080039.488000", "080039.492000", "080039.495000", "080039.508000", "080039.512000", "080039.516000", "080039.519000", "080039.524000", "080039.527000", "080039.531000", "080039.535000", "080039.539000", "080039.543000", "080039.548000", "080039.552000", "080039.556000", "080039.560000", "080039.564000", "080039.568000", "080039.573000", "080039.577000", "080039.582000", "080039.586000", "080039.590000", "080039.594000", "080039.599000", "080039.603000", "080039.607000", "080039.612000", "080039.616000", "080039.620000", "080039.625000", "080039.629000", "080119.485000", "080119.489000", "080119.492000", "080119.496000", "080119.501000", "080119.505000", "080119.509000", "080119.513000", "080119.517000", "080119.521000", "080119.525000", "080119.529000", "080119.533000", "080119.537000", "080119.541000", "080119.545000", "080119.549000", "080119.553000", "080119.557000", "080119.561000", "080119.565000", "080119.569000", "080119.573000", "080119.577000", "080119.581000", "080119.585000", "080119.589000", "080119.593000", "080119.597000", "080119.601000", "080119.605000", "080119.609000", "080119.614000", "080119.627000", "080119.631000", "080159.483000", "080159.488000", "080159.492000", "080159.495000", "080159.499000", "080159.503000", "080159.507000", "080159.511000", "080159.515000", "080159.519000", "080159.523000", "080159.527000", "080159.531000", "080159.535000", "080159.539000", "080159.550000", "080159.554000", "080159.558000", "080159.562000", "080159.565000", "080159.569000", "080159.573000", "080159.577000", "080159.581000", "080159.584000", "080159.588000", "080159.592000", "080159.596000", "080159.599000", "080159.603000", "080159.607000", "080159.611000", "080159.615000", "080159.619000", "080239.485000", "080239.490000", "080239.494000", "080239.498000", "080239.502000", "080239.506000", "080239.509000", "080239.513000", "080239.517000", "080239.521000", "080239.525000", "080239.529000", "080239.533000", "080239.537000", "080239.542000", "080239.546000", "080239.550000", "080239.555000", "080239.559000", "080239.563000", "080239.566000", "080239.570000", "080239.574000", "080239.578000", "080239.582000", "080239.586000", "080239.590000", "080239.594000", "080239.597000", "080239.602000", "080239.605000", "080239.609000", "080239.613000", "080239.617000", "080239.621000", "080259.482000", "080259.486000", "080259.491000", "080259.495000", "080259.499000", "080259.503000", "080259.508000", "080259.512000", "080259.516000", "080259.520000", "080259.524000", "080259.527000", "080259.531000", "080259.535000", "080259.539000", "080259.543000", "080259.547000", "080339.485000", "080339.489000", "080339.493000", "080339.497000", "080339.501000", "080339.505000", "080339.509000", "080339.513000", "080339.517000", "080339.521000", "080339.526000", "080339.530000", "080339.535000", "080339.539000", "080339.543000", "080339.547000", "080339.551000", "080339.555000", "080339.559000", "080339.563000", "080339.567000", "080339.571000", "080339.574000", "080339.578000", "080339.582000", "080339.586000", "080339.589000", "080339.593000", "080339.597000", "080339.601000", "080339.605000", "080339.609000", "080339.613000", "080339.618000", "080339.622000", "080357.901000", "080357.905000", "080357.909000", "080357.913000", "080357.917000", "080357.921000", "080357.925000", "080357.929000", "080357.933000", "080357.937000", "080357.941000", "080357.944000", "080357.948000", "080357.952000", "080357.956000", "080357.960000"], "InstanceCreationTime": ["075659.517000", "075659.522000", "075659.533000", "075659.537000", "075659.541000", "075659.545000", "075659.549000", "075659.553000", "075659.557000", "075659.561000", "075659.564000", "075659.568000", "075659.572000", "075659.576000", "075659.580000", "075659.584000", "075659.588000", "075659.592000", "075659.601000", "075659.605000", "075659.608000", "075719.484000", "075719.488000", "075719.493000", "075719.496000", "075719.501000", "075719.504000", "075719.508000", "075719.512000", "075719.516000", "075719.520000", "075719.524000", "075719.528000", "075719.532000", "075719.536000", "075719.540000", "075719.544000", "075719.548000", "075719.552000", "075719.556000", "075719.559000", "075759.483000", "075759.487000", "075759.491000", "075759.495000", "075759.499000", "075759.503000", "075759.507000", "075759.511000", "075759.515000", "075759.519000", "075759.522000", "075759.526000", "075759.530000", "075759.534000", "075759.538000", "075759.542000", "075759.546000", "075759.549000", "075759.554000", "075759.557000", "075759.570000", "075759.574000", "075759.581000", "075759.584000", "075759.588000", "075759.592000", "075759.596000", "075759.600000", "075759.604000", "075759.608000", "075759.612000", "075759.616000", "075759.620000", "075759.624000", "075759.628000", "075759.632000", "075839.482000", "075839.487000", "075839.492000", "075839.496000", "075839.500000", "075839.505000", "075839.509000", "075839.512000", "075839.516000", "075839.520000", "075839.524000", "075839.528000", "075839.532000", "075839.536000", "075839.540000", "075839.544000", "075839.548000", "075839.552000", "075839.556000", "075839.560000", "075839.564000", "075839.569000", "075839.573000", "075839.577000", "075839.581000", "075839.584000", "075839.589000", "075839.593000", "075839.596000", "075839.601000", "075839.605000", "075839.609000", "075839.613000", "075839.617000", "075839.621000", "075919.483000", "075919.488000", "075919.492000", "075919.500000", "075919.507000", "075919.512000", "075919.528000", "075919.533000", "075919.537000", "075919.542000", "075919.546000", "075919.551000", "075919.555000", "075919.560000", "075919.565000", "075919.569000", "075919.573000", "075919.577000", "075919.581000", "075919.585000", "075919.589000", "075919.593000", "075919.597000", "075919.601000", "075919.605000", "075919.609000", "075919.613000", "075919.617000", "075919.621000", "075919.625000", "075919.629000", "075919.633000", "075919.637000", "075919.641000", "075959.484000", "075959.489000", "075959.493000", "075959.498000", "075959.502000", "075959.507000", "075959.511000", "075959.516000", "075959.520000", "075959.525000", "075959.529000", "075959.534000", "075959.538000", "075959.543000", "075959.550000", "075959.554000", "075959.558000", "075959.563000", "075959.567000", "075959.571000", "075959.575000", "075959.579000", "075959.583000", "075959.588000", "075959.592000", "075959.596000", "075959.601000", "075959.606000", "075959.610000", "075959.615000", "075959.619000", "075959.623000", "075959.627000", "075959.631000", "075959.636000", "080039.484000", "080039.488000", "080039.492000", "080039.495000", "080039.508000", "080039.512000", "080039.516000", "080039.519000", "080039.524000", "080039.527000", "080039.531000", "080039.535000", "080039.539000", "080039.543000", "080039.548000", "080039.552000", "080039.556000", "080039.560000", "080039.564000", "080039.568000", "080039.573000", "080039.577000", "080039.582000", "080039.586000", "080039.590000", "080039.594000", "080039.599000", "080039.603000", "080039.607000", "080039.612000", "080039.616000", "080039.620000", "080039.625000", "080039.629000", "080119.485000", "080119.489000", "080119.492000", "080119.496000", "080119.501000", "080119.505000", "080119.509000", "080119.513000", "080119.517000", "080119.521000", "080119.525000", "080119.529000", "080119.533000", "080119.537000", "080119.541000", "080119.545000", "080119.549000", "080119.553000", "080119.557000", "080119.561000", "080119.565000", "080119.569000", "080119.573000", "080119.577000", "080119.581000", "080119.585000", "080119.589000", "080119.593000", "080119.597000", "080119.601000", "080119.605000", "080119.609000", "080119.614000", "080119.627000", "080119.631000", "080159.483000", "080159.488000", "080159.492000", "080159.495000", "080159.499000", "080159.503000", "080159.507000", "080159.511000", "080159.515000", "080159.519000", "080159.523000", "080159.527000", "080159.531000", "080159.535000", "080159.539000", "080159.550000", "080159.554000", "080159.558000", "080159.562000", "080159.565000", "080159.569000", "080159.573000", "080159.577000", "080159.581000", "080159.584000", "080159.588000", "080159.592000", "080159.596000", "080159.599000", "080159.603000", "080159.607000", "080159.611000", "080159.615000", "080159.619000", "080239.485000", "080239.490000", "080239.494000", "080239.498000", "080239.502000", "080239.506000", "080239.509000", "080239.513000", "080239.517000", "080239.521000", "080239.525000", "080239.529000", "080239.533000", "080239.537000", "080239.542000", "080239.546000", "080239.550000", "080239.555000", "080239.559000", "080239.563000", "080239.566000", "080239.570000", "080239.574000", "080239.578000", "080239.582000", "080239.586000", "080239.590000", "080239.594000", "080239.597000", "080239.602000", "080239.605000", "080239.609000", "080239.613000", "080239.617000", "080239.621000", "080259.482000", "080259.486000", "080259.491000", "080259.495000", "080259.499000", "080259.503000", "080259.508000", "080259.512000", "080259.516000", "080259.520000", "080259.524000", "080259.527000", "080259.531000", "080259.535000", "080259.539000", "080259.543000", "080259.547000", "080339.485000", "080339.489000", "080339.493000", "080339.497000", "080339.501000", "080339.505000", "080339.509000", "080339.513000", "080339.517000", "080339.521000", "080339.526000", "080339.530000", "080339.535000", "080339.539000", "080339.543000", "080339.547000", "080339.551000", "080339.555000", "080339.559000", "080339.563000", "080339.567000", "080339.571000", "080339.574000", "080339.578000", "080339.582000", "080339.586000", "080339.589000", "080339.593000", "080339.597000", "080339.601000", "080339.605000", "080339.609000", "080339.613000", "080339.618000", "080339.622000", "080357.901000", "080357.905000", "080357.909000", "080357.913000", "080357.917000", "080357.921000", "080357.925000", "080357.929000", "080357.933000", "080357.937000", "080357.941000", "080357.944000", "080357.948000", "080357.952000", "080357.956000", "080357.960000"], "InstanceNumber": [1, 2, 3, 4, 5, 6, 7, 8, 9, 10, 11, 12, 13, 14, 15, 16, 17, 18, 19, 20, 21, 22, 23, 24, 25, 26, 27, 28, 29, 30, 31, 32, 33, 34, 35, 36, 37, 38, 39, 40, 41, 42, 43, 44, 45, 46, 47, 48, 49, 50, 51, 52, 53, 54, 55, 56, 57, 58, 59, 60, 61, 62, 63, 64, 65, 66, 67, 68, 69, 70, 71, 72, 73, 74, 75, 76, 77, 78, 79, 80, 81, 82, 83, 84, 85, 86, 87, 88, 89, 90, 91, 92, 93, 94, 95, 96, 97, 98, 99, 100, 101, 102, 103, 104, 105, 106, 107, 108, 109, 110, 111, 112, 113, 114, 115, 116, 117, 118, 119, 120, 121, 122, 123, 124, 125, 126, 127, 128, 129, 130, 131, 132, 133, 134, 135, 136, 137, 138, 139, 140, 141, 142, 143, 144, 145, 146, 147, 148, 149, 150, 151, 152, 153, 154, 155, 156, 157, 158, 159, 160, 161, 162, 163, 164, 165, 166, 167, 168, 169, 170, 171, 172, 173, 174, 175, 176, 177, 178, 179, 180, 181, 182, 183, 184, 185, 186, 187, 188, 189, 190, 191, 192, 193, 194, 195, 196, 197, 198, 199, 200, 201, 202, 203, 204, 205, 206, 207, 208, 209, 210, 211, 212, 213, 214, 215, 216, 217, 218, 219, 220, 221, 222, 223, 224, 225, 226, 227, 228, 229, 230, 231, 232, 233, 234, 235, 236, 237, 238, 239, 240, 241, 242, 243, 244, 245, 246, 247, 248, 249, 250, 251, 252, 253, 254, 255, 256, 257, 258, 259, 260, 261, 262, 263, 264, 265, 266, 267, 268, 269, 270, 271, 272, 273, 274, 275, 276, 277, 278, 279, 280, 281, 282, 283, 284, 285, 286, 287, 288, 289, 290, 291, 292, 293, 294, 295, 296, 297, 298, 299, 300, 301, 302, 303, 304, 305, 306, 307, 308, 309, 310, 311, 312, 313, 314, 315, 316, 317, 318, 319, 320, 321, 322, 323, 324, 325, 326, 327, 328, 329, 330, 331, 332, 333, 334, 335, 336, 337, 338, 339, 340, 341, 342, 343, 344, 345, 346, 347, 348, 349, 350, 351, 352, 353, 354, 355, 356, 357, 358, 359, 360, 361, 362, 363, 364, 365, 366, 367, 368, 369, 370, 371, 372, 373, 374, 375, 376, 377, 378, 379, 380, 381, 382, 383, 384, 385, 386, 387], "LargestImagePixelValue": [32246, 27735, 33711, 29320, 26613, 27278, 32163, 28297, 28939, 33283, 28185, 28972, 30784, 34778, 24532, 32406, 32172, 33163, 29994, 27994, 27066, 26322, 27686, 27289, 28420, 31202, 28442, 25956, 32170, 28752, 26541, 31220, 30666, 33148, 26765, 28841, 34726, 33145, 25824, 31293, 25367, 34866, 33132, 36455, 25677, 27830, 30288, 27726, 33038, 34261, 33793, 26945, 34170, 33436, 33628, 34333, 26624, 30392, 30783, 27109, 33809, 26014, 27630, 28320, 28096, 29909, 26868, 30709, 30908, 35069, 26945, 28379, 32302, 33047, 34242, 29842, 34470, 28270, 27279, 30021, 32228, 34581, 26548, 30467, 26397, 28819, 31398, 26338, 32023, 27127, 28829, 34762, 25123, 28285, 31120, 30984, 27942, 25481, 30447, 28315, 26927, 31513, 25262, 27170, 34010, 24104, 29315, 28566, 30689, 32221, 28681, 33971, 26039, 28311, 31899, 27803, 26548, 28428, 30986, 27824, 28144, 33658, 31937, 30635, 32492, 33600, 34352, 35422, 25778, 32787, 28707, 33193, 26565, 24805, 30366, 28241, 29312, 27070, 34573, 30356, 27078, 30102, 28033, 30545, 29387, 34271, 24582, 29289, 25898, 27776, 34006, 26431, 29118, 28508, 33637, 34226, 25460, 27512, 28942, 29238, 34259, 25049, 27550, 33526, 33487, 35311, 26551, 26505, 34037, 32571, 34901, 29328, 29076, 29570, 24653, 31044, 31676, 27763, 28405, 26916, 26795, 27832, 25381, 29196, 34350, 32508, 34035, 28668, 26021, 28915, 25411, 33971, 32538, 2511