{
    "AcquisitionMatrixPE": 96,
    "AcquisitionNumber": 1,
    "AcquisitionTime": "07:42:35.482500",
    "BandwidthPerPixelPhaseEncode": 33.602,
    "BaseResolution": 96,
    "BodyPartExamined": "BRAIN",
    "ConsistencyInfo": "N4_VD11D_LATEST_20110129",
    "ConversionSoftware": "dcm2niix",
    "ConversionSoftwareVersion": "v1.0.20210317",
    "DerivedVendorReportedEchoSpacing": 0.000620003,
    "DeviceSerialNumber": "45239",
    "DwellTime": 2.6e-06,
    "EchoTime": 0.03,
    "EchoTrainLength": 48,
    "EffectiveEchoSpacing": 0.000310001,
    "FlipAngle": 63,
    "ImageComments": "Unaliased MB4/PE3",
    "ImageOrientationPatientDICOM": [
        0.999947,
        -0.00912488,
        0.00477036,
        0.0102966,
        0.886157,
        -0.463271
    ],
    "ImageType": [
        "ORIGINAL",
        "PRIMARY",
        "M",
        "ND",
        "NORM",
        "MOSAIC"
    ],
    "ImagingFrequency": 123.193,
    "InPlanePhaseEncodingDirectionDICOM": "COL",
    "InstitutionAddress": "E 24th St. 100,Austin,Southmiddle,US,78712",
    "InstitutionName": "Univ of Texas at Austin",
    "InstitutionalDepartmentName": "IRC",
    "MRAcquisitionType": "2D",
    "MagneticFieldStrength": 3,
    "Manufacturer": "Siemens",
    "ManufacturersModelName": "Skyra",
    "Modality": "MR",
    "MultibandAccelerationFactor": 4,
    "ParallelReductionFactorInPlane": 2,
    "PartialFourier": 1,
    "PatientPosition": "HFS",
    "PercentPhaseFOV": 100,
    "PercentSampling": 100,
    "PhaseEncodingDirection": "j-",
    "PhaseEncodingSteps": 96,
    "PhaseResolution": 1,
    "PixelBandwidth": 2005,
    "ProcedureStepDescription": "Poldrack2^self-scanning",
    "ProtocolName": "dots_motion",
    "PulseSequenceDetails": "%CustomerSeq%\\cmrr_mbep2d_bold",
    "ReceiveCoilActiveElements": "HEA;HEP",
    "ReceiveCoilName": "Head_32",
    "ReconMatrixPE": 96,
    "RefLinesPE": 94,
    "RepetitionTime": 1.16,
    "SAR": 0.103566,
    "ScanOptions": "FS",
    "ScanningSequence": "EP",
    "SequenceName": "epfid2d1_96",
    "SequenceVariant": "SK",
    "SeriesDescription": "dots_motion",
    "SeriesNumber": 8,
    "ShimSetting": [
        -2777,
        8039,
        -15397,
        107,
        -178,
        61,
        217,
        -46
    ],
    "SliceThickness": 2,
    "SliceTiming": [
        0,
        0.4975,
        0.9975,
        0.355,
        0.855,
        0.2125,
        0.7125,
        0.07,
        0.57,
        1.0675,
        0.4275,
        0.925,
        0.285,
        0.7825,
        0.1425,
        0.64,
        0,
        0.4975,
        0.9975,
        0.355,
        0.855,
        0.2125,
        0.7125,
        0.07,
        0.57,
        1.0675,
        0.4275,
        0.925,
        0.285,
        0.7825,
        0.1425,
        0.64,
        0,
        0.4975,
        0.9975,
        0.355,
        0.855,
        0.2125,
        0.7125,
        0.07,
        0.57,
        1.0675,
        0.4275,
        0.925,
        0.285,
        0.7825,
        0.1425,
        0.64,
        0,
        0.4975,
        0.9975,
        0.355,
        0.855,
        0.2125,
        0.7125,
        0.07,
        0.57,
        1.0675,
        0.4275,
        0.925,
        0.285,
        0.7825,
        0.1425,
        0.64
    ],
    "SoftwareVersions": "syngo MR D11",
    "SpacingBetweenSlices": 2.4,
    "StationName": "AWP45239",
    "TaskName": "Dot motion stop-signal task",
    "TotalReadoutTime": 0.0294501,
    "TxRefAmp": 346.173,
    "WipMemBlock": "53420150-f64e-42dd-b4ad-88e6d5f4c7f0||Sequence: VD11D r206; Feb 13 2013 18:52:04 by eja",
    "dcmmeta_affine": [
        [
            -2.3957061767578125,
            0.024668918922543526,
            -1.6859440066241405e-08,
            116.92047882080078
        ],
        [
            0.021861692890524864,
            2.1230833530426025,
            -1.1119104623794556,
            -85.58000183105469
        ],
        [
            0.011428997851908207,
            1.1099212169647217,
            2.1268885135650635,
            -69.81901550292969
        ],
        [
            0.0,
            0.0,
            0.0,
            1.0
        ]
    ],
    "dcmmeta_reorient_transform": [
        [
            0.0,
            -1.0,
            0.0,
            95.0
        ],
        [
            1.0,
            0.0,
            0.0,
            0.0
        ],
        [
            0.0,
            0.0,
            1.0,
            0.0
        ],
        [
            0.0,
            0.0,
            0.0,
            1.0
        ]
    ],
    "dcmmeta_shape": [
        96,
        96,
        64,
        372
    ],
    "dcmmeta_slice_dim": 2,
    "dcmmeta_version": 0.6,
    "global": {
        "const": {
            "AcquisitionMatrix": [
                96,
                0,
                0,
                96
            ],
            "AngioFlag": "N",
            "BitsAllocated": 16,
            "BitsStored": 16,
            "BodyPartExamined": "BRAIN",
            "Columns": 768,
            "EchoNumbers": 1,
            "EchoTime": 30.0,
            "EchoTrainLength": 48,
            "FlipAngle": 63.0,
            "HighBit": 15,
            "ImageOrientationPatient": [
                0.99994698868542,
                -0.0091248804654,
                0.00477036428861,
                0.0102965925895,
                0.88615660080238,
                -0.4632714744461
            ],
            "ImagePositionPatient": [
                -932.51008226664,
                -822.12343698913,
                404.7168794686
            ],
            "ImageType": [
                "ORIGINAL",
                "PRIMARY",
                "M",
                "ND",
                "NORM",
                "MOSAIC"
            ],
            "ImagedNucleus": "1H",
            "ImagingFrequency": 123.193125,
            "InPlanePhaseEncodingDirection": "COL",
            "MRAcquisitionType": "2D",
            "MagneticFieldStrength": 3.0,
            "Manufacturer": "SIEMENS",
            "ManufacturerModelName": "Skyra",
            "Modality": "MR",
            "NumberOfAverages": 1.0,
            "NumberOfPhaseEncodingSteps": 96,
            "PercentPhaseFieldOfView": 100.0,
            "PercentSampling": 100.0,
            "PerformedProcedureStepStartTime": "072146.046000",
            "PhotometricInterpretation": "MONOCHROME2",
            "PixelBandwidth": 2005.0,
            "PixelRepresentation": 0,
            "PixelSpacing": [
                2.3958332538605,
                2.3958332538605
            ],
            "ProtocolName": "dots_motion",
            "RepetitionTime": 1160.0,
            "Rows": 768,
            "SAR": 0.10356639163314,
            "SamplesPerPixel": 1,
            "ScanOptions": "FS",
            "ScanningSequence": "EP",
            "SequenceName": "epfid2d1_96",
            "SequenceVariant": "SK",
            "SeriesDescription": "dots_motion",
            "SeriesNumber": 8,
            "SeriesTime": "074324.031000",
            "SliceLocation": -22.224987293233,
            "SliceThickness": 2.0,
            "SmallestImagePixelValue": 0,
            "SoftwareVersions": "syngo MR D11",
            "SpacingBetweenSlices": 2.4000000031901,
            "SpecificCharacterSet": "ISO_IR 100",
            "StudyID": "1",
            "StudyTime": "072145.953000",
            "TransmitCoilName": "Body",
            "VariableFlipAngleFlag": "N",
            "WindowCenterWidthExplanation": "Algo1",
            "dBdt": 0.0
        },
        "slices": {}
    },
    "time": {
        "samples": {
            "AcquisitionNumber": [
                1,
                2,
                3,
                4,
                5,
                6,
                7,
                8,
                9,
                10,
                11,
                12,
                13,
                14,
                15,
                16,
                17,
                18,
                19,
                20,
                21,
                22,
                23,
                24,
                25,
                26,
                27,
                28,
                29,
                30,
                31,
                32,
                33,
                34,
                35,
                36,
                37,
                38,
                39,
                40,
                41,
                42,
                43,
                44,
                45,
                46,
                47,
                48,
                49,
                50,
                51,
                52,
                53,
                54,
                55,
                56,
                57,
                58,
                59,
                60,
                61,
                62,
                63,
                64,
                65,
                66,
                67,
                68,
                69,
                70,
                71,
                72,
                73,
                74,
                75,
                76,
                77,
                78,
                79,
                80,
                81,
                82,
                83,
                84,
                85,
                86,
                87,
                88,
                89,
                90,
                91,
                92,
                93,
                94,
                95,
                96,
                97,
                98,
                99,
                100,
                101,
                102,
                103,
                104,
                105,
                106,
                107,
                108,
                109,
                110,
                111,
                112,
                113,
                114,
                115,
                116,
                117,
                118,
                119,
                120,
                121,
                122,
                123,
                124,
                125,
                126,
                127,
                128,
                129,
                130,
                131,
                132,
                133,
                134,
                135,
                136,
                137,
                138,
                139,
                140,
                141,
                142,
                143,
                144,
                145,
                146,
                147,
                148,
                149,
                150,
                151,
                152,
                153,
                154,
                155,
                156,
                157,
                158,
                159,
                160,
                161,
                162,
                163,
                164,
                165,
                166,
                167,
                168,
                169,
                170,
                171,
                172,
                173,
                174,
                175,
                176,
                177,
                178,
                179,
                180,
                181,
                182,
                183,
                184,
                185,
                186,
                187,
                188,
                189,
                190,
                191,
                192,
                193,
                194,
                195,
                196,
                197,
                198,
                199,
                200,
                201,
                202,
                203,
                204,
                205,
                206,
                207,
                208,
                209,
                210,
                211,
                212,
                213,
                214,
                215,
                216,
                217,
                218,
                219,
                220,
                221,
                222,
                223,
                224,
                225,
                226,
                227,
                228,
                229,
                230,
                231,
                232,
                233,
                234,
                235,
                236,
                237,
                238,
                239,
                240,
                241,
                242,
                243,
                244,
                245,
                246,
                247,
                248,
                249,
                250,
                251,
                252,
                253,
                254,
                255,
                256,
                257,
                258,
                259,
                260,
                261,
                262,
                263,
                264,
                265,
                266,
                267,
                268,
                269,
                270,
                271,
                272,
                273,
                274,
                275,
                276,
                277,
                278,
                279,
                280,
                281,
                282,
                283,
                284,
                285,
                286,
                287,
                288,
                289,
                290,
                291,
                292,
                293,
                294,
                295,
                296,
                297,
                298,
                299,
                300,
                301,
                302,
                303,
                304,
                305,
                306,
                307,
                308,
                309,
                310,
                311,
                312,
                313,
                314,
                315,
                316,
                317,
                318,
                319,
                320,
                321,
                322,
                323,
                324,
                325,
                326,
                327,
                328,
                329,
                330,
                331,
                332,
                333,
                334,
                335,
                336,
                337,
                338,
                339,
                340,
                341,
                342,
                343,
                344,
                345,
                346,
                347,
                348,
                349,
                350,
                351,
                352,
                353,
                354,
                355,
                356,
                357,
                358,
                359,
                360,
                361,
                362,
                363,
                364,
                365,
                366,
                367,
                368,
                369,
                370,
                371,
                372
            ],
            "AcquisitionTime": [
                "074235.482500",
                "074304.482500",
                "074305.642500",
                "074306.802500",
                "074307.962500",
                "074309.122500",
                "074310.282500",
                "074311.442500",
                "074312.602500",
                "074313.762500",
                "074314.922500",
                "074316.082500",
                "074317.242500",
                "074318.402500",
                "074319.562500",
                "074320.722500",
                "074321.882500",
                "074323.042500",
                "074324.202500",
                "074325.362500",
                "074326.522500",
                "074327.682500",
                "074328.842500",
                "074330.002500",
                "074331.162500",
                "074332.322500",
                "074333.482500",
                "074334.642500",
                "074335.802500",
                "074336.962500",
                "074338.122500",
                "074339.282500",
                "074340.442500",
                "074341.602500",
                "074342.762500",
                "074343.922500",
                "074345.082500",
                "074346.242500",
                "074347.402500",
                "074348.562500",
                "074349.722500",
                "074350.882500",
                "074352.042500",
                "074353.202500",
                "074354.362500",
                "074355.522500",
                "074356.682500",
                "074357.842500",
                "074359.002500",
                "074400.162500",
                "074401.322500",
                "074402.482500",
                "074403.642500",
                "074404.802500",
                "074405.962500",
                "074407.122500",
                "074408.282500",
                "074409.442500",
                "074410.602500",
                "074411.762500",
                "074412.922500",
                "074414.082500",
                "074415.242500",
                "074416.402500",
                "074417.562500",
                "074418.722500",
                "074419.882500",
                "074421.042500",
                "074422.202500",
                "074423.362500",
                "074424.522500",
                "074425.682500",
                "074426.842500",
                "074428.002500",
                "074429.162500",
                "074430.322500",
                "074431.482500",
                "074432.642500",
                "074433.802500",
                "074434.962500",
                "074436.122500",
                "074437.282500",
                "074438.442500",
                "074439.602500",
                "074440.762500",
                "074441.922500",
                "074443.082500",
                "074444.242500",
                "074445.402500",
                "074446.562500",
                "074447.722500",
                "074448.882500",
                "074450.042500",
                "074451.202500",
                "074452.362500",
                "074453.522500",
                "074454.682500",
                "074455.842500",
                "074457.002500",
                "074458.162500",
                "074459.322500",
                "074500.482500",
                "074501.642500",
                "074502.802500",
                "074503.962500",
                "074505.122500",
                "074506.282500",
                "074507.442500",
                "074508.602500",
                "074509.762500",
                "074510.922500",
                "074512.082500",
                "074513.242500",
                "074514.402500",
                "074515.562500",
                "074516.722500",
                "074517.882500",
                "074519.042500",
                "074520.202500",
                "074521.362500",
                "074522.522500",
                "074523.682500",
                "074524.842500",
                "074526.002500",
                "074527.162500",
                "074528.322500",
                "074529.482500",
                "074530.642500",
                "074531.802500",
                "074532.962500",
                "074534.122500",
                "074535.282500",
                "074536.442500",
                "074537.602500",
                "074538.762500",
                "074539.922500",
                "074541.082500",
                "074542.242500",
                "074543.402500",
                "074544.562500",
                "074545.722500",
                "074546.882500",
                "074548.042500",
                "074549.202500",
                "074550.362500",
                "074551.522500",
                "074552.682500",
                "074553.842500",
                "074555.002500",
                "074556.162500",
                "074557.322500",
                "074558.482500",
                "074559.642500",
                "074600.802500",
                "074601.962500",
                "074603.122500",
                "074604.282500",
                "074605.442500",
                "074606.602500",
                "074607.762500",
                "074608.922500",
                "074610.082500",
                "074611.242500",
                "074612.402500",
                "074613.562500",
                "074614.722500",
                "074615.882500",
                "074617.042500",
                "074618.202500",
                "074619.362500",
                "074620.522500",
                "074621.682500",
                "074622.842500",
                "074624.005000",
                "074625.165000",
                "074626.325000",
                "074627.485000",
                "074628.645000",
                "074629.805000",
                "074630.965000",
                "074632.125000",
                "074633.285000",
                "074634.445000",
                "074635.605000",
                "074636.765000",
                "074637.925000",
                "074639.085000",
                "074640.245000",
                "074641.405000",
                "074642.565000",
                "074643.725000",
                "074644.885000",
                "074646.045000",
                "074647.205000",
                "074648.365000",
                "074649.525000",
                "074650.685000",
                "074651.845000",
                "074653.005000",
                "074654.165000",
                "074655.325000",
                "074656.485000",
                "074657.645000",
                "074658.805000",
                "074659.965000",
                "074701.125000",
                "074702.285000",
                "074703.445000",
                "074704.605000",
                "074705.765000",
                "074706.925000",
                "074708.085000",
                "074709.245000",
                "074710.405000",
                "074711.565000",
                "074712.725000",
                "074713.885000",
                "074715.045000",
                "074716.205000",
                "074717.365000",
                "074718.525000",
                "074719.685000",
                "074720.845000",
                "074722.005000",
                "074723.165000",
                "074724.325000",
                "074725.485000",
                "074726.645000",
                "074727.805000",
                "074728.965000",
                "074730.125000",
                "074731.285000",
                "074732.445000",
                "074733.605000",
                "074734.765000",
                "074735.925000",
                "074737.085000",
                "074738.245000",
                "074739.405000",
                "074740.565000",
                "074741.725000",
                "074742.885000",
                "074744.045000",
                "074745.205000",
                "074746.365000",
                "074747.525000",
                "074748.685000",
                "074749.845000",
                "074751.005000",
                "074752.165000",
                "074753.325000",
                "074754.485000",
                "074755.645000",
                "074756.805000",
                "074757.965000",
                "074759.125000",
                "074800.285000",
                "074801.445000",
                "074802.605000",
                "074803.765000",
                "074804.925000",
                "074806.085000",
                "074807.245000",
                "074808.405000",
                "074809.565000",
                "074810.725000",
                "074811.885000",
                "074813.045000",
                "074814.205000",
                "074815.365000",
                "074816.525000",
                "074817.685000",
                "074818.845000",
                "074820.005000",
                "074821.165000",
                "074822.325000",
                "074823.485000",
                "074824.645000",
                "074825.805000",
                "074826.965000",
                "074828.125000",
                "074829.285000",
                "074830.445000",
                "074831.605000",
                "074832.765000",
                "074833.925000",
                "074835.085000",
                "074836.245000",
                "074837.405000",
                "074838.565000",
                "074839.725000",
                "074840.885000",
                "074842.045000",
                "074843.205000",
                "074844.365000",
                "074845.525000",
                "074846.685000",
                "074847.845000",
                "074849.005000",
                "074850.165000",
                "074851.325000",
                "074852.485000",
                "074853.645000",
                "074854.805000",
                "074855.965000",
                "074857.125000",
                "074858.285000",
                "074859.445000",
                "074900.605000",
                "074901.765000",
                "074902.925000",
                "074904.085000",
                "074905.245000",
                "074906.405000",
                "074907.565000",
                "074908.725000",
                "074909.885000",
                "074911.045000",
                "074912.205000",
                "074913.365000",
                "074914.525000",
                "074915.685000",
                "074916.845000",
                "074918.005000",
                "074919.165000",
                "074920.325000",
                "074921.485000",
                "074922.645000",
                "074923.805000",
                "074924.965000",
                "074926.125000",
                "074927.285000",
                "074928.445000",
                "074929.605000",
                "074930.765000",
                "074931.925000",
                "074933.085000",
                "074934.245000",
                "074935.405000",
                "074936.565000",
                "074937.725000",
                "074938.885000",
                "074940.045000",
                "074941.205000",
                "074942.365000",
                "074943.525000",
                "074944.685000",
                "074945.845000",
                "074947.005000",
                "074948.165000",
                "074949.325000",
                "074950.485000",
                "074951.645000",
                "074952.805000",
                "074953.965000",
                "074955.125000",
                "074956.285000",
                "074957.445000",
                "074958.605000",
                "074959.765000",
                "075000.925000",
                "075002.085000",
                "075003.245000",
                "075004.405000",
                "075005.565000",
                "075006.725000",
                "075007.885000",
                "075009.045000",
                "075010.205000",
                "075011.365000",
                "075012.525000",
                "075013.685000"
            ],
            "ContentTime": [
                "074324.046000",
                "074329.937000",
                "074329.937000",
                "074329.953000",
                "074329.953000",
                "074329.953000",
                "074329.953000",
                "074329.953000",
                "074329.968000",
                "074334.937000",
                "074334.937000",
                "074334.953000",
                "074334.953000",
                "074339.937000",
                "074339.937000",
                "074339.937000",
                "074344.937000",
                "074344.953000",
                "074344.953000",
                "074344.953000",
                "074349.937000",
                "074349.937000",
                "074349.953000",
                "074349.953000",
                "074354.937000",
                "074354.953000",
                "074354.953000",
                "074359.937000",
                "074359.937000",
                "074359.937000",
                "074359.953000",
                "074404.937000",
                "074404.937000",
                "074404.937000",
                "074404.953000",
                "074409.937000",
                "074409.937000",
                "074409.937000",
                "074409.953000",
                "074414.937000",
                "074414.937000",
                "074414.953000",
                "074419.937000",
                "074419.937000",
                "074419.937000",
                "074419.953000",
                "074424.937000",
                "074424.937000",
                "074424.937000",
                "074425.000000",
                "074429.937000",
                "074429.937000",
                "074429.937000",
                "074429.953000",
                "074434.937000",
                "074434.937000",
                "074434.937000",
                "074434.953000",
                "074439.937000",
                "074439.937000",
                "074439.937000",
                "074439.953000",
                "074444.937000",
                "074444.984000",
                "074444.984000",
                "074449.937000",
                "074449.937000",
                "074449.953000",
                "074449.953000",
