{
    "AcquisitionMatrixPE": 96,
    "AcquisitionNumber": 1,
    "AcquisitionTime": "07:31:7.957500",
    "BandwidthPerPixelPhaseEncode": 33.602,
    "BaseResolution": 96,
    "BodyPartExamined": "BRAIN",
    "ConsistencyInfo": "N4_VD11D_LATEST_20110129",
    "ConversionSoftware": "dcm2niix",
    "ConversionSoftwareVersion": "v1.0.20210317",
    "DerivedVendorReportedEchoSpacing": 0.000620003,
    "DeviceSerialNumber": "45239",
    "DwellTime": 2.6e-06,
    "EchoTime": 0.03,
    "EchoTrainLength": 48,
    "EffectiveEchoSpacing": 0.000310001,
    "FlipAngle": 63,
    "ImageComments": "Unaliased MB4/PE3",
    "ImageOrientationPatientDICOM": [
        0.999947,
        -0.00912488,
        0.00477036,
        0.0102966,
        0.886157,
        -0.463271
    ],
    "ImageType": [
        "ORIGINAL",
        "PRIMARY",
        "M",
        "ND",
        "NORM",
        "MOSAIC"
    ],
    "ImagingFrequency": 123.193,
    "InPlanePhaseEncodingDirectionDICOM": "COL",
    "InstitutionAddress": "E 24th St. 100,Austin,Southmiddle,US,78712",
    "InstitutionName": "Univ of Texas at Austin",
    "InstitutionalDepartmentName": "IRC",
    "MRAcquisitionType": "2D",
    "MagneticFieldStrength": 3,
    "Manufacturer": "Siemens",
    "ManufacturersModelName": "Skyra",
    "Modality": "MR",
    "MultibandAccelerationFactor": 4,
    "ParallelReductionFactorInPlane": 2,
    "PartialFourier": 1,
    "PatientPosition": "HFS",
    "PercentPhaseFOV": 100,
    "PercentSampling": 100,
    "PhaseEncodingDirection": "j-",
    "PhaseEncodingSteps": 96,
    "PhaseResolution": 1,
    "PixelBandwidth": 2005,
    "ProcedureStepDescription": "Poldrack2^self-scanning",
    "ProtocolName": "Resting State fMRI MBEPI_matrix96_BW2004",
    "PulseSequenceDetails": "%CustomerSeq%\\cmrr_mbep2d_bold",
    "ReceiveCoilActiveElements": "HEA;HEP",
    "ReceiveCoilName": "Head_32",
    "ReconMatrixPE": 96,
    "RefLinesPE": 94,
    "RepetitionTime": 1.16,
    "SAR": 0.104555,
    "ScanOptions": "FS",
    "ScanningSequence": "EP",
    "SequenceName": "epfid2d1_96",
    "SequenceVariant": "SK",
    "SeriesDescription": "Resting State fMRI MBEPI_matrix96_BW2004",
    "SeriesNumber": 6,
    "ShimSetting": [
        -2777,
        8039,
        -15397,
        107,
        -178,
        61,
        217,
        -46
    ],
    "SliceThickness": 2,
    "SliceTiming": [
        0,
        0.4975,
        0.9975,
        0.355,
        0.855,
        0.2125,
        0.7125,
        0.07,
        0.57,
        1.0675,
        0.4275,
        0.925,
        0.285,
        0.7825,
        0.1425,
        0.64,
        0,
        0.4975,
        0.9975,
        0.355,
        0.855,
        0.2125,
        0.7125,
        0.07,
        0.57,
        1.0675,
        0.4275,
        0.925,
        0.285,
        0.7825,
        0.1425,
        0.64,
        0,
        0.4975,
        0.9975,
        0.355,
        0.855,
        0.2125,
        0.7125,
        0.07,
        0.57,
        1.0675,
        0.4275,
        0.925,
        0.285,
        0.7825,
        0.1425,
        0.64,
        0,
        0.4975,
        0.9975,
        0.355,
        0.855,
        0.2125,
        0.7125,
        0.07,
        0.57,
        1.0675,
        0.4275,
        0.925,
        0.285,
        0.7825,
        0.1425,
        0.64
    ],
    "SoftwareVersions": "syngo MR D11",
    "SpacingBetweenSlices": 2.4,
    "StationName": "AWP45239",
    "TaskName": "Resting fmri",
    "TotalReadoutTime": 0.0294501,
    "TxRefAmp": 346.173,
    "WipMemBlock": "375f5ee4-98fd-4063-949a-2574e862f838||Sequence: VD11D r206; Feb 13 2013 18:52:04 by eja",
    "dcmmeta_affine": [
        [
            -2.3957061767578125,
            0.024668918922543526,
            -1.6859440066241405e-08,
            116.92047882080078
        ],
        [
            0.021861692890524864,
            2.1230833530426025,
            -1.1119104623794556,
            -85.58000183105469
        ],
        [
            0.011428997851908207,
            1.1099212169647217,
            2.1268885135650635,
            -69.81901550292969
        ],
        [
            0.0,
            0.0,
            0.0,
            1.0
        ]
    ],
    "dcmmeta_reorient_transform": [
        [
            0.0,
            -1.0,
            0.0,
            95.0
        ],
        [
            1.0,
            0.0,
            0.0,
            0.0
        ],
        [
            0.0,
            0.0,
            1.0,
            0.0
        ],
        [
            0.0,
            0.0,
            0.0,
            1.0
        ]
    ],
    "dcmmeta_shape": [
        96,
        96,
        64,
        518
    ],
    "dcmmeta_slice_dim": 2,
    "dcmmeta_version": 0.6,
    "global": {
        "const": {
            "AcquisitionMatrix": [
                96,
                0,
                0,
                96
            ],
            "AngioFlag": "N",
            "BitsAllocated": 16,
            "BitsStored": 16,
            "BodyPartExamined": "BRAIN",
            "Columns": 768,
            "EchoNumbers": 1,
            "EchoTime": 30.0,
            "EchoTrainLength": 48,
            "FlipAngle": 63.0,
            "HighBit": 15,
            "ImageOrientationPatient": [
                0.99994698868542,
                -0.0091248804654,
                0.00477036428861,
                0.0102965925895,
                0.88615660080238,
                -0.4632714744461
            ],
            "ImagePositionPatient": [
                -932.51008226664,
                -822.12343698913,
                404.7168794686
            ],
            "ImageType": [
                "ORIGINAL",
                "PRIMARY",
                "M",
                "ND",
                "NORM",
                "MOSAIC"
            ],
            "ImagedNucleus": "1H",
            "ImagingFrequency": 123.193085,
            "InPlanePhaseEncodingDirection": "COL",
            "MRAcquisitionType": "2D",
            "MagneticFieldStrength": 3.0,
            "Manufacturer": "SIEMENS",
            "ManufacturerModelName": "Skyra",
            "Modality": "MR",
            "NumberOfAverages": 1.0,
            "NumberOfPhaseEncodingSteps": 96,
            "PercentPhaseFieldOfView": 100.0,
            "PercentSampling": 100.0,
            "PerformedProcedureStepStartTime": "072146.046000",
            "PhotometricInterpretation": "MONOCHROME2",
            "PixelBandwidth": 2005.0,
            "PixelRepresentation": 0,
            "PixelSpacing": [
                2.3958332538605,
                2.3958332538605
            ],
            "ProtocolName": "Resting State fMRI MBEPI_matrix96_BW2004",
            "RepetitionTime": 1160.0,
            "Rows": 768,
            "SAR": 0.10455506689648,
            "SamplesPerPixel": 1,
            "ScanOptions": "FS",
            "ScanningSequence": "EP",
            "SequenceName": "epfid2d1_96",
            "SequenceVariant": "SK",
            "SeriesDescription": "Resting State fMRI MBEPI_matrix96_BW2004",
            "SeriesNumber": 6,
            "SeriesTime": "073147.921000",
            "SliceLocation": -22.224987293233,
            "SliceThickness": 2.0,
            "SmallestImagePixelValue": 0,
            "SoftwareVersions": "syngo MR D11",
            "SpacingBetweenSlices": 2.4000000031901,
            "SpecificCharacterSet": "ISO_IR 100",
            "StudyID": "1",
            "StudyTime": "072145.953000",
            "TransmitCoilName": "Body",
            "VariableFlipAngleFlag": "N",
            "WindowCenterWidthExplanation": "Algo1",
            "dBdt": 0.0
        },
        "slices": {}
    },
    "time": {
        "samples": {
            "AcquisitionNumber": [
                1,
                2,
                3,
                4,
                5,
                6,
                7,
                8,
                9,
                10,
                11,
                12,
                13,
                14,
                15,
                16,
                17,
                18,
                19,
                20,
                21,
                22,
                23,
                24,
                25,
                26,
                27,
                28,
                29,
                30,
                31,
                32,
                33,
                34,
                35,
                36,
                37,
                38,
                39,
                40,
                41,
                42,
                43,
                44,
                45,
                46,
                47,
                48,
                49,
                50,
                51,
                52,
                53,
                54,
                55,
                56,
                57,
                58,
                59,
                60,
                61,
                62,
                63,
                64,
                65,
                66,
                67,
                68,
                69,
                70,
                71,
                72,
                73,
                74,
                75,
                76,
                77,
                78,
                79,
                80,
                81,
                82,
                83,
                84,
                85,
                86,
                87,
                88,
                89,
                90,
                91,
                92,
                93,
                94,
                95,
                96,
                97,
                98,
                99,
                100,
                101,
                102,
                103,
                104,
                105,
                106,
                107,
                108,
                109,
                110,
                111,
                112,
                113,
                114,
                115,
                116,
                117,
                118,
                119,
                120,
                121,
                122,
                123,
                124,
                125,
                126,
                127,
                128,
                129,
                130,
                131,
                132,
                133,
                134,
                135,
                136,
                137,
                138,
                139,
                140,
                141,
                142,
                143,
                144,
                145,
                146,
                147,
                148,
                149,
                150,
                151,
                152,
                153,
                154,
                155,
                156,
                157,
                158,
                159,
                160,
                161,
                162,
                163,
                164,
                165,
                166,
                167,
                168,
                169,
                170,
                171,
                172,
                173,
                174,
                175,
                176,
                177,
                178,
                179,
                180,
                181,
                182,
                183,
                184,
                185,
                186,
                187,
                188,
                189,
                190,
                191,
                192,
                193,
                194,
                195,
                196,
                197,
                198,
                199,
                200,
                201,
                202,
                203,
                204,
                205,
                206,
                207,
                208,
                209,
                210,
                211,
                212,
                213,
                214,
                215,
                216,
                217,
                218,
                219,
                220,
                221,
                222,
                223,
                224,
                225,
                226,
                227,
                228,
                229,
                230,
                231,
                232,
                233,
                234,
                235,
                236,
                237,
                238,
                239,
                240,
                241,
                242,
                243,
                244,
                245,
                246,
                247,
                248,
                249,
                250,
                251,
                252,
                253,
                254,
                255,
                256,
                257,
                258,
                259,
                260,
                261,
                262,
                263,
                264,
                265,
                266,
                267,
                268,
                269,
                270,
                271,
                272,
                273,
                274,
                275,
                276,
                277,
                278,
                279,
                280,
                281,
                282,
                283,
                284,
                285,
                286,
                287,
                288,
                289,
                290,
                291,
                292,
                293,
                294,
                295,
                296,
                297,
                298,
                299,
                300,
                301,
                302,
                303,
                304,
                305,
                306,
                307,
                308,
                309,
                310,
                311,
                312,
                313,
                314,
                315,
                316,
                317,
                318,
                319,
                320,
                321,
                322,
                323,
                324,
                325,
                326,
                327,
                328,
                329,
                330,
                331,
                332,
                333,
                334,
                335,
                336,
                337,
                338,
                339,
                340,
                341,
                342,
                343,
                344,
                345,
                346,
                347,
                348,
                349,
                350,
                351,
                352,
                353,
                354,
                355,
                356,
                357,
                358,
                359,
                360,
                361,
                362,
                363,
                364,
                365,
                366,
                367,
                368,
                369,
                370,
                371,
                372,
                373,
                374,
                375,
                376,
                377,
                378,
                379,
                380,
                381,
                382,
                383,
                384,
                385,
                386,
                387,
                388,
                389,
                390,
                391,
                392,
                393,
                394,
                395,
                396,
                397,
                398,
                399,
                400,
                401,
                402,
                403,
                404,
                405,
                406,
                407,
                408,
                409,
                410,
                411,
                412,
                413,
                414,
                415,
                416,
                417,
                418,
                419,
                420,
                421,
                422,
                423,
                424,
                425,
                426,
                427,
                428,
                429,
                430,
                431,
                432,
                433,
                434,
                435,
                436,
                437,
                438,
                439,
                440,
                441,
                442,
                443,
                444,
                445,
                446,
                447,
                448,
                449,
                450,
                451,
                452,
                453,
                454,
                455,
                456,
                457,
                458,
                459,
                460,
                461,
                462,
                463,
                464,
                465,
                466,
                467,
                468,
                469,
                470,
                471,
                472,
                473,
                474,
                475,
                476,
                477,
                478,
                479,
                480,
                481,
                482,
                483,
                484,
                485,
                486,
                487,
                488,
                489,
                490,
                491,
                492,
                493,
                494,
                495,
                496,
                497,
                498,
                499,
                500,
                501,
                502,
                503,
                504,
                505,
                506,
                507,
                508,
                509,
                510,
                511,
                512,
                513,
                514,
                515,
                516,
                517,
                518
            ],
            "AcquisitionTime": [
                "073107.957500",
                "073136.957500",
                "073138.117500",
                "073139.277500",
                "073140.437500",
                "073141.597500",
                "073142.757500",
                "073143.917500",
                "073145.077500",
                "073146.237500",
                "073147.397500",
                "073148.557500",
                "073149.717500",
                "073150.877500",
                "073152.037500",
                "073153.197500",
                "073154.357500",
                "073155.517500",
                "073156.677500",
                "073157.837500",
                "073158.997500",
                "073200.157500",
                "073201.317500",
                "073202.477500",
                "073203.637500",
                "073204.797500",
                "073205.957500",
                "073207.117500",
                "073208.277500",
                "073209.437500",
                "073210.597500",
                "073211.757500",
                "073212.917500",
                "073214.077500",
                "073215.237500",
                "073216.397500",
                "073217.557500",
                "073218.717500",
                "073219.877500",
                "073221.037500",
                "073222.197500",
                "073223.357500",
                "073224.517500",
                "073225.677500",
                "073226.837500",
                "073227.997500",
                "073229.157500",
                "073230.317500",
                "073231.477500",
                "073232.637500",
                "073233.797500",
                "073234.957500",
                "073236.117500",
                "073237.277500",
                "073238.437500",
                "073239.597500",
                "073240.757500",
                "073241.917500",
                "073243.077500",
                "073244.237500",
                "073245.397500",
                "073246.557500",
                "073247.717500",
                "073248.877500",
                "073250.037500",
                "073251.197500",
                "073252.357500",
                "073253.517500",
                "073254.677500",
                "073255.837500",
                "073256.997500",
                "073258.157500",
                "073259.317500",
                "073300.477500",
                "073301.637500",
                "073302.797500",
                "073303.957500",
                "073305.117500",
                "073306.277500",
                "073307.437500",
                "073308.597500",
                "073309.757500",
                "073310.917500",
                "073312.077500",
                "073313.237500",
                "073314.397500",
                "073315.557500",
                "073316.717500",
                "073317.877500",
                "073319.037500",
                "073320.197500",
                "073321.357500",
                "073322.517500",
                "073323.677500",
                "073324.837500",
                "073325.997500",
                "073327.157500",
                "073328.317500",
                "073329.477500",
                "073330.637500",
                "073331.797500",
                "073332.957500",
                "073334.117500",
                "073335.277500",
                "073336.437500",
                "073337.597500",
                "073338.757500",
                "073339.917500",
                "073341.077500",
                "073342.237500",
                "073343.397500",
                "073344.557500",
                "073345.717500",
                "073346.877500",
                "073348.037500",
                "073349.197500",
                "073350.357500",
                "073351.517500",
                "073352.677500",
                "073353.837500",
                "073354.997500",
                "073356.157500",
                "073357.317500",
                "073358.477500",
                "073359.637500",
                "073400.797500",
                "073401.957500",
                "073403.117500",
                "073404.277500",
                "073405.437500",
                "073406.597500",
                "073407.757500",
                "073408.917500",
                "073410.077500",
                "073411.237500",
                "073412.397500",
                "073413.557500",
                "073414.717500",
                "073415.877500",
                "073417.037500",
                "073418.197500",
                "073419.357500",
                "073420.517500",
                "073421.677500",
                "073422.837500",
                "073423.997500",
                "073425.157500",
                "073426.317500",
                "073427.477500",
                "073428.637500",
                "073429.797500",
                "073430.957500",
                "073432.117500",
                "073433.277500",
                "073434.440000",
                "073435.600000",
                "073436.760000",
                "073437.920000",
                "073439.080000",
                "073440.240000",
                "073441.400000",
                "073442.560000",
                "073443.720000",
                "073444.880000",
                "073446.040000",
                "073447.200000",
                "073448.360000",
                "073449.520000",
                "073450.680000",
                "073451.840000",
                "073453.000000",
                "073454.160000",
                "073455.320000",
                "073456.480000",
                "073457.640000",
                "073458.800000",
                "073459.960000",
                "073501.120000",
                "073502.280000",
                "073503.440000",
                "073504.600000",
                "073505.760000",
                "073506.920000",
                "073508.080000",
                "073509.240000",
                "073510.400000",
                "073511.560000",
                "073512.720000",
                "073513.880000",
                "073515.040000",
                "073516.200000",
                "073517.360000",
                "073518.520000",
                "073519.680000",
                "073520.840000",
                "073522.000000",
                "073523.160000",
                "073524.320000",
                "073525.480000",
                "073526.640000",
                "073527.800000",
                "073528.960000",
                "073530.120000",
                "073531.280000",
                "073532.440000",
                "073533.600000",
                "073534.760000",
                "073535.920000",
                "073537.080000",
                "073538.240000",
                "073539.400000",
                "073540.560000",
                "073541.720000",
                "073542.880000",
                "073544.040000",
                "073545.200000",
                "073546.360000",
                "073547.520000",
                "073548.680000",
                "073549.840000",
                "073551.000000",
                "073552.160000",
                "073553.320000",
                "073554.480000",
                "073555.640000",
                "073556.800000",
                "073557.960000",
                "073559.120000",
                "073600.280000",
                "073601.440000",
                "073602.600000",
                "073603.760000",
                "073604.920000",
                "073606.080000",
                "073607.240000",
                "073608.400000",
                "073609.560000",
                "073610.720000",
                "073611.880000",
                "073613.040000",
                "073614.200000",
                "073615.360000",
                "073616.520000",
                "073617.680000",
                "073618.840000",
                "073620.000000",
                "073621.160000",
                "073622.320000",
                "073623.480000",
                "073624.640000",
                "073625.800000",
                "073626.960000",
                "073628.120000",
                "073629.280000",
                "073630.440000",
                "073631.600000",
                "073632.760000",
                "073633.920000",
                "073635.080000",
                "073636.240000",
                "073637.400000",
                "073638.560000",
                "073639.720000",
                "073640.880000",
                "073642.040000",
                "073643.200000",
                "073644.360000",
                "073645.520000",
                "073646.680000",
                "073647.840000",
                "073649.000000",
                "073650.160000",
                "073651.320000",
                "073652.480000",
                "073653.640000",
                "073654.800000",
                "073655.960000",
                "073657.120000",
                "073658.280000",
                "073659.440000",
                "073700.600000",
                "073701.760000",
                "073702.920000",
                "073704.080000",
                "073705.240000",
                "073706.400000",
                "073707.560000",
                "073708.720000",
                "073709.880000",
                "073711.040000",
                "073712.200000",
                "073713.360000",
                "073714.520000",
                "073715.680000",
                "073716.840000",
                "073718.000000",
                "073719.160000",
                "073720.320000",
                "073721.480000",
                "073722.640000",
                "073723.800000",
                "073724.960000",
                "073726.120000",
                "073727.280000",
                "073728.440000",
                "073729.600000",
                "073730.760000",
                "073731.920000",
                "073733.080000",
                "073734.240000",
                "073735.400000",
                "073736.560000",
                "073737.720000",
                "073738.880000",
                "073740.040000",
                "073741.200000",
                "073742.360000",
                "073743.520000",
                "073744.680000",
                "073745.840000",
                "073747.000000",
                "073748.160000",
                "073749.320000",
                "073750.480000",
                "073751.640000",
                "073752.800000",
                "073753.960000",
                "073755.120000",
                "073756.280000",
                "073757.440000",
                "073758.600000",
                "073759.760000",
                "073800.920000",
                "073802.080000",
                "073803.240000",
                "073804.400000",
                "073805.560000",
                "073806.720000",
                "073807.880000",
                "073809.040000",
                "073810.200000",
                "073811.360000",
                "073812.520000",
                "073813.680000",
                "073814.840000",
                "073816.000000",
