{"AcquisitionMatrixPE": 96, "AcquisitionNumber": 1, "AcquisitionTime": "17:30:37.537500", "BaseResolution": 96, "BodyPartExamined": "BRAIN", "ConsistencyInfo": "N4_VD11D_LATEST_20110129", "ConversionSoftware": "dcm2niix", "ConversionSoftwareVersion": "v1.0.20210317", "DeviceSerialNumber": "45239", "DwellTime": 9.2e-06, "EchoNumber": 2, "EchoTime": 0.00738, "EchoTime1": 0.00492, "EchoTime2": 0.00738, "FlipAngle": 50, "ImageOrientationPatientDICOM": [0.99908, 0.0172656, 0.0392543, 0.00924308, 0.807155, -0.590268], "ImageType": ["ORIGINAL", "PRIMARY", "P", "ND", "PHASE"], "ImagingFrequency": 123.193, "InPlanePhaseEncodingDirectionDICOM": "COL", "InstitutionAddress": "E 24th St. 100,Austin,Southmiddle,US,78712", "InstitutionName": "Univ of Texas at Austin", "InstitutionalDepartmentName": "IRC", "MRAcquisitionType": "2D", "MagneticFieldStrength": 3, "Manufacturer": "Siemens", "ManufacturersModelName": "Skyra", "Modality": "MR", "MultibandAccelerationFactor": 2, "PartialFourier": 1, "PatientPosition": "HFS", "PercentPhaseFOV": 100, "PercentSampling": 100, "PhaseEncodingDirection": "j-", "PhaseEncodingSteps": 96, "PhaseResolution": 1, "PixelBandwidth": 565, "ProcedureStepDescription": "Poldrack2^self-scanning", "ProtocolName": "gre_field_mapping", "PulseSequenceDetails": "%SiemensSeq%\\gre_field_mapping", "ReceiveCoilActiveElements": "HEA;HEP", "ReceiveCoilName": "Head_32", "ReconMatrixPE": 96, "RepetitionTime": 0.731, "SAR": 0.113612, "ScanningSequence": "GR", "SequenceName": "*fm2d2r", "SequenceVariant": "SP", "SeriesDescription": "gre_field_mapping", "SeriesNumber": 11, "ShimSetting": [-2798, 8071, -15446, 188, -262, 90, 169, -114], "SliceThickness": 2, "SliceTiming": [0.35938, 0, 0.375, 0.01562, 0.39062, 0.01562, 0.39062, 0.03125, 0.40625, 0.04688, 0.42188, 0.04688, 0.42188, 0.0625, 0.4375, 0.07812, 0.45312, 0.07812, 0.45312, 0.09375, 0.46875, 0.10938, 0.48438, 0.125, 0.5, 0.125, 0.5, 0.14062, 0.51562, 0.15625, 0.53125, 0.15625, 0.53125, 0.17188, 0.54688, 0.1875, 0.5625, 0.1875, 0.5625, 0.20312, 0.57812, 0.21875, 0.59375, 0.21875, 0.59375, 0.23438, 0.60938, 0.25, 0.625, 0.26562, 0.64062, 0.26562, 0.64062, 0.28125, 0.65625, 0.28125, 0.67188, 0.29688, 0.67188, 0.3125, 0.6875, 0.32812, 0.70312, 0.32812, 0.70312, 0.34375, 0.71875, 0.35938], "SoftwareVersions": "syngo MR D11", "SpacingBetweenSlices": 2.4, "StationName": "AWP45239", "TxRefAmp": 331.185, "dcmmeta_affine": [[-2.393629312515259, 0.022144870832562447, 0.10050153732299805, 114.82220458984375], [-0.041365478187799454, 1.9338078498840332, -1.4162101745605469, -51.25291442871094], [0.09404686838388443, 1.4141831398010254, 1.9350051879882812, -103.10360717773438], [0.0, 0.0, 0.0, 1.0]], "dcmmeta_reorient_transform": [[0.0, -1.0, 0.0, 95.0], [1.0, 0.0, 0.0, 0.0], [0.0, 0.0, -1.0, 67.0], [0.0, 0.0, 0.0, 1.0]], "dcmmeta_shape": [96, 96, 68], "dcmmeta_slice_dim": 2, "dcmmeta_version": 0.6, "global": {"const": {"AcquisitionMatrix": [96, 0, 0, 96], "AcquisitionNumber": 1, "AngioFlag": "N", "BitsAllocated": 16, "BitsStored": 12, "BodyPartExamined": "BRAIN", "Columns": 96, "EchoNumbers": 2, "EchoTime": 7.38, "EchoTrainLength": 0, "FlipAngle": 50.0, "HighBit": 11, "ImageOrientationPatient": [0.99908007472532, 0.01726559131166, 0.03925434553664, 0.00924307644219, 0.80715458991201, -0.5902677642578], "ImageType": ["ORIGINAL", "PRIMARY", "P", "ND"], "ImagedNucleus": "1H", "ImagingFrequency": 123.193296, "InPlanePhaseEncodingDirection": "COL", "MRAcquisitionType": "2D", "MagneticFieldStrength": 3.0, "Manufacturer": "SIEMENS", "ManufacturerModelName": "Skyra", "Modality": "MR", "NumberOfAverages": 1.0, "NumberOfPhaseEncodingSteps": 96, "PercentPhaseFieldOfView": 100.0, "PercentSampling": 100.0, "PerformedProcedureStepStartTime": "170833.125000", "PhotometricInterpretation": "MONOCHROME2", "PixelBandwidth": 565.0, "PixelRepresentation": 0, "PixelSpacing": [2.3958332538605, 2.3958332538605], "ProtocolName": "gre_field_mapping", "RepetitionTime": 731.0, "RescaleIntercept": -4096.0, "RescaleSlope": 2.0, "RescaleType": "US", "Rows": 96, "SAR": 0.11361244673066, "SamplesPerPixel": 1, "ScanningSequence": "GR", "SequenceName": "*fm2d2r", "SequenceVariant": "SP", "SeriesDescription": "gre_field_mapping", "SeriesNumber": 11, "SeriesTime": "173258.593000", "SliceThickness": 2.0, "SoftwareVersions": "syngo MR D11", "SpacingBetweenSlices": 2.4, "SpecificCharacterSet": "ISO_IR 100", "StudyID": "1", "StudyTime": "170833.015000", "TransmitCoilName": "Body", "VariableFlipAngleFlag": "N", "WindowCenterWidthExplanation": "Algo1", "dBdt": 0.0}, "slices": {"AcquisitionTime": ["173037.537500", "173037.170000", "173037.547500", "173037.182500", "173037.557500", "173037.192500", "173037.567500", "173037.202500", "173037.580000", "173037.215000", "173037.590000", "173037.225000", "173037.600000", "173037.235000", "173037.612500", "173037.245000", "173037.622500", "173037.257500", "173037.632500", "173037.267500", "173037.645000", "173037.277500", "173037.655000", "173037.290000", "173037.665000", "173037.300000", "173037.675000", "173037.310000", "173037.687500", "173037.322500", "173037.697500", "173037.332500", "173037.707500", "173037.342500", "173037.720000", "173037.352500", "173037.730000", "173037.365000", "173037.740000", "173037.375000", "173037.752500", "173037.385000", "173037.762500", "173037.397500", "173037.772500", "173037.407500", "173037.782500", "173037.417500", "173037.795000", "173037.430000", "173037.805000", "173037.440000", "173037.815000", "173037.450000", "173037.827500", "173037.460000", "173037.837500", "173037.472500", "173037.847500", "173037.482500", "173037.860000", "173037.492500", "173037.870000", "173037.505000", "173037.880000", "173037.515000", "173037.890000", "173037.525000"], "ContentTime": ["173258.671000", "173258.593000", "173258.671000", "173258.609000", "173258.671000", "173258.609000", "173258.671000", "173258.609000", "173258.671000", "173258.609000", "173258.671000", "173258.609000", "173258.671000", "173258.609000", "173258.687000", "173258.625000", "173258.687000", "173258.625000", "173258.687000", "173258.625000", "173258.687000", "173258.625000", "173258.687000", "173258.625000", "173258.687000", "173258.625000", "173258.687000", "173258.625000", "173258.687000", "173258.625000", "173258.687000", "173258.625000", "173258.703000", "173258.640000", "173258.703000", "173258.640000", "173258.703000", "173258.640000", "173258.703000", "173258.640000", "173258.718000", "173258.640000", "173258.718000", "173258.640000", "173258.718000", "173258.640000", "173258.718000", "173258.640000", "173258.718000", "173258.656000", "173258.734000", "173258.656000", "173258.734000", "173258.656000", "173258.734000", "173258.656000", "173258.734000", "173258.656000", "173258.734000", "173258.656000", "173258.734000", "173258.656000", "173258.734000", "173258.656000", "173258.750000", "173258.656000", "173258.750000", "173258.671000"], "CsaImage.GSWDDataType": ["predicted", "predicted", "predicted", "predicted", "predicted", "predicted", "predicted", "predicted", "predicted", "predicted", "predicted", "predicted", "predicted", "predicted", "predicted", "predicted", "predicted", "predicted", "predicted", "predicted", "predicted", "predicted", "predicted", "predicted", "predicted", "predicted", "predicted", "predicted", "predicted", "predicted", "predicted", "predicted", "predicted", "predicted", "measured", "predicted", "measured", "predicted", "measured", "predicted", "measured", "predicted", "measured", "predicted", "measured", "predicted", "measured", "predicted", "measured", "predicted", "measured", "predicted", "measured", "predicted", "measured", "predicted", "measured", "predicted", "measured", "predicted", "measured", "predicted", "measured", "predicted", "measured", "predicted", "measured", "predicted"], "CsaImage.ICE_Dims": ["X_2_1_1_1_1_1_35_1_1_1_1_38", "X_2_1_1_1_1_1_1_1_1_2_1_38", "X_2_1_1_1_1_1_36_1_1_3_1_38", "X_2_1_1_1_1_1_2_1_1_4_1_38", "X_2_1_1_1_1_1_37_1_1_5_1_38", "X_2_1_1_1_1_1_3_1_1_6_1_38", "X_2_1_1_1_1_1_38_1_1_7_1_38", "X_2_1_1_1_1_1_4_1_1_8_1_38", "X_2_1_1_1_1_1_39_1_1_9_1_38", "X_2_1_1_1_1_1_5_1_1_10_1_38", "X_2_1_1_1_1_1_40_1_1_11_1_38", "X_2_1_1_1_1_1_6_1_1_12_1_38", "X_2_1_1_1_1_1_41_1_1_13_1_38", "X_2_1_1_1_1_1_7_1_1_14_1_38", "X_2_1_1_1_1_1_42_1_1_15_1_38", "X_2_1_1_1_1_1_8_1_1_16_1_38", "X_2_1_1_1_1_1_43_1_1_17_1_38", "X_2_1_1_1_1_1_9_1_1_18_1_38", "X_2_1_1_1_1_1_44_1_1_19_1_38", "X_2_1_1_1_1_1_10_1_1_20_1_38", "X_2_1_1_1_1_1_45_1_1_21_1_38", "X_2_1_1_1_1_1_11_1_1_22_1_38", "X_2_1_1_1_1_1_46_1_1_23_1_38", "X_2_1_1_1_1_1_12_1_1_24_1_38", "X_2_1_1_1_1_1_47_1_1_25_1_38", "X_2_1_1_1_1_1_13_1_1_26_1_38", "X_2_1_1_1_1_1_48_1_1_27_1_38", "X_2_1_1_1_1_1_14_1_1_28_1_38", "X_2_1_1_1_1_1_49_1_1_29_1_38", "X_2_1_1_1_1_1_15_1_1_30_1_38", "X_2_1_1_1_1_1_50_1_1_31_1_38", "X_2_1_1_1_1_1_16_1_1_32_1_38", "X_2_1_1_1_1_1_51_1_1_33_1_38", "X_2_1_1_1_1_1_17_1_1_34_1_38", "X_2_1_1_1_1_1_52_1_1_35_1_38", "X_2_1_1_1_1_1_18_1_1_36_1_38", "X_2_1_1_1_1_1_53_1_1_37_1_38", "X_2_1_1_1_1_1_19_1_1_38_1_38", "X_2_1_1_1_1_1_54_1_1_39_1_38", "X_2_1_1_1_1_1_20_1_1_40_1_38", "X_2_1_1_1_1_1_55_1_1_41_1_38", "X_2_1_1_1_1_1_21_1_1_42_1_38", "X_2_1_1_1_1_1_56_1_1_43_1_38", "X_2_1_1_1_1_1_22_1_1_44_1_38", "X_2_1_1_1_1_1_57_1_1_45_1_38", "X_2_1_1_1_1_1_23_1_1_46_1_38", "X_2_1_1_1_1_1_58_1_1_47_1_38", "X_2_1_1_1_1_1_24_1_1_48_1_38", "X_2_1_1_1_1_1_59_1_1_49_1_38", "X_2_1_1_1_1_1_25_1_1_50_1_38", "X_2_1_1_1_1_1_60_1_1_51_1_38", "X_2_1_1_1_1_1_26_1_1_52_1_38", "X_2_1_1_1_1_1_61_1_1_53_1_38", "X_2_1_1_1_1_1_27_1_1_54_1_38", "X_2_1_1_1_1_1_62_1_1_55_1_38", "X_2_1_1_1_1_1_28_1_1_56_1_38", "X_2_1_1_1_1_1_63_1_1_57_1_38", "X_2_1_1_1_1_1_29_1_1_58_1_38", "X_2_1_1_1_1_1_64_1_1_59_1_38", "X_2_1_1_1_1_1_30_1_1_60_1_38", "X_2_1_1_1_1_1_65_1_1_61_1_38", "X_2_1_1_1_1_1_31_1_1_62_1_38", "X_2_1_1_1_1_1_66_1_1_63_1_38", "X_2_1_1_1_1_1_32_1_1_64_1_38", "X_2_1_1_1_1_1_67_1_1_65_1_38", "X_2_1_1_1_1_1_33_1_1_66_1_38", "X_2_1_1_1_1_1_68_1_1_67_1_38", "X_2_1_1_1_1_1_34_1_1_68_1_38"], "CsaImage.ProtocolSliceNumber": [0, 1, 2, 3, 4, 5, 6, 7, 8, 9, 10, 11, 12, 13, 14, 15, 16, 17, 18, 19, 20, 21, 22, 23, 24, 25, 26, 27, 28, 29, 30, 31, 32, 33, 34, 35, 36, 37, 38, 39, 40, 41, 42, 43, 44, 45, 46, 47, 48, 49, 50, 51, 52, 53, 54, 55, 56, 57, 58, 59, 60, 61, 62, 63, 64, 65, 66, 67], "CsaImage.RFSWDDataType": ["predicted", "predicted", "predicted", "predicted", "predicted", "predicted", "predicted", "predicted", "predicted", "predicted", "predicted", "predicted", "predicted", "predicted", "predicted", "predicted", "predicted", "predicted", "predicted", "predicted", "predicted", "predicted", "predicted", "predicted", "predicted", "predicted", "predicted", "predicted", "predicted", "predicted", "predicted", "predicted", "measured", "predicted", "measured", "predicted", "measured", "predicted", "measured", "predicted", "measured", "predicted", "measured", "predicted", "measured", "predicted", "measured", "predicted", "measured", "predicted", "measured", "predicted", "measured", "predicted", "measured", "predicted", "measured", "predicted", "measured", "predicted", "measured", "predicted", "measured", "predicted", "measured", "predicted", "measured", "predicted"], "CsaImage.SlicePosition_PCS": [[-116.925966, -132.45883039, 31.24374213], [-117.02646753, -131.04262022, 33.17874923], [-117.12696907, -129.62641004, 35.11375441], [-117.22747073, -128.21019987, 37.0487596], [-117.32797227, -126.79398969, 38.9837667], [-117.4284738, -125.37777952, 40.91877189], [-117.52897534, -123.96156934, 42.85377707], [-117.629477, -122.54535917, 44.78878417], [-117.72997853, -121.12914899, 46.72378936], [-117.83048007, -119.71293882, 48.6587955], [-117.93098161, -118.29672865, 50.59380164], [-118.03148315, -116.88051847, 52.52880778], [-118.13198492, -115.4643083, 54.46381392], [-118.23248646, -114.04809812, 56.39881959], [-118.332988, -112.63188795, 58.33382525], [-118.43348953, -111.21567777, 60.2688314], [-118.53399107, -109.7994676, 62.2038373], [-118.63449261, -108.38325647, 64.1388432], [-118.73499415, -106.9670463, 66.0738491], [-118.83549568, -105.55083612, 68.00885501], [-118.93599746, -104.13462595, 69.94386115], [-119.036499, -102.71841577, 71.87886729], [-119.13700053, -101.3022056, 73.81387248], [-119.23750207, -99.88599542, 75.74887862], [-119.33800361, -98.46978501, 77.68388476], [-119.43850515, -97.05357484, 79.6188909], [-119.53900668, -95.6373646, 81.55389609], [-119.63950846, -94.22115437, 83.48890319], [-119.74001, -92.80494407, 85.42390838], [-119.84051153, -91.3887339, 87.35891356], [-119.94101307, -89.97252372, 89.29392066], [-120.04151485, -88.55631355, 91.22892585], [-120.14201638, -87.1401029, 93.16393294], [-120.24251792, -85.72389272, 95.09893813], [-120.34301946, -84.30768255, 97.03394523], [-120.443521, -82.89147237, 98.96895041], [-120.54402253, -81.4752622, 100.9039556], [-120.64452407, -80.05905203, 102.83896079], [-120.74502561, -78.64284185, 104.77396598], [-120.84552714, -77.22663168, 106.70897498], [-120.94602868, -75.8104215, 108.64398017], [-121.04653022, -74.39421133, 110.57898536], [-121.14703176, -72.97800115, 112.51399054], [-121.24753329, -71.56179098, 114.44899573], [-121.34803483, -70.1455808, 116.38400474], [-121.44853637, -68.72937063, 118.31900992], [-121.54903838, -67.31316045, 120.25401511], [-121.64953992, -65.89694837, 122.1890203], [-121.75004146, -64.4807382, 124.12402549], [-121.85054299, -63.06452802, 126.05903449], [-121.95104453, -61.64831785, 127.99403586], [-122.05154607, -60.23210767, 129.92904105], [-122.15204761, -58.8158975, 131.86405387], [-122.25254914, -57.39968732, 133.79905906], [-122.35305068, -55.98347715, 135.73406424], [-122.45355222, -54.56726698, 137.66906943], [-122.55405376, -53.1510568, 139.60407462], [-122.65455529, -51.73484663, 141.53907981], [-122.75505683, -50.31863645, 143.474085], [-122.85555837, -48.90242628, 145.40909018], [-122.95605991, -47.4862161, 147.34409537], [-123.05656192, -46.07000593, 149.27910056], [-123.15706346, -44.65379575, 151.21411338], [-123.25756499, -43.23758558, 153.14911857], [-123.35806653, -41.8213754, 155.08412375], [-123.45856807, -40.40516523, 157.01912894], [-123.55906961, -38.98895506, 158.95413413], [-123.65957114, -37.57274488, 160.88913932]], "CsaImage.TimeAfterStart": [1.1, 0.735, 1.11, 0.745, 1.1225, 0.755, 1.1325, 0.7675, 1.1425, 0.7775, 1.1525, 0.7875, 1.165, 0.8, 1.175, 0.81, 1.185, 0.82, 1.1975, 0.83, 1.2075, 0.8425, 1.2175, 0.8525, 1.23, 0.8625, 1.24, 0.875, 1.25, 0.885, 1.26, 0.895, 1.2725, 0.9075, 1.2825, 0.9175, 1.2925, 0.9275, 1.305, 0.9375, 1.315, 0.95, 1.325, 0.96, 1.3375, 0.97, 1.3475, 0.9825, 1.3575, 0.9925, 1.3675, 1.0025, 1.38, 1.015, 1.39, 1.025, 1.4, 1.035, 1.4125, 1.045, 1.4225, 1.0575, 1.4325, 1.0675, 1.445, 1.0775, 1.455, 1.09], "ImagePositionPatient": [[-116.92596599669, -132.45883039112, 31.243742131302], [-117.02646753402, -131.04262021656, 33.178749226638], [-117.12696907134, -129.626410042, 35.113754414627], [-117.22747072787, -128.21019986744, 37.048759602615], [-117.3279722652, -126.79398969288, 38.983766697952], [-117.42847380252, -125.37777951832, 40.91877188594], [-117.52897533984, -123.96156934376, 42.853777073929], [-117.62947699637, -122.5453591692, 44.788784169265], [-117.7299785337, -121.12914899464, 46.723789357254], [-117.83048007102, -119.71293882008, 48.658795498916], [-117.93098160834, -118.29672864552, 50.593801640579], [-118.03148314567, -116.88051847096, 52.528807782242], [-118.13198492141, -115.4643082964, 54.463813923904], [-118.23248645873, -114.04809812183, 56.39881958873], [-118.33298799605, -112.63188794727, 58.333825253555], [-118.43348953338, -111.21567777271, 60.268831395218], [-118.5339910707, -109.79946759815, 62.203837298462], [-118.63449260802, -108.38325646992, 64.138843201706], [-118.73499414535, -106.96704629536, 66.07384910495], [-118.83549568267, -105.5508361208, 68.008855008194], [-118.93599745841, -104.13462594624, 69.943861149856], [-119.03649899573, -102.71841577168, 71.878867291519], [-119.13700053306, -101.30220559712, 73.813872479507], [-119.23750207038, -99.885995422555, 75.74887862117], [-119.3380036077, -98.469785009576, 77.683884762832], [-119.43850514502, -97.053574835015, 79.618890904495], [-119.53900668235, -95.63736460085, 81.553896092483], [-119.63950845809, -94.221154366685, 83.48890318782], [-119.74000999541, -92.804944072915, 85.423908375808], [-119.84051153274, -91.388733898354, 87.358913563797], [-119.94101307006, -89.972523723794, 89.293920659134], [-120.0415148458, -88.556313549233, 91.228925847122], [-120.14201638312, -87.140102897835, 93.163932942459], [-120.24251792045, -85.723892723275, 95.098938130447], [-120.34301945777, -84.307682548714, 97.033945225784], [-120.44352099509, -82.891472374154, 98.968950413772], [-120.54402253242, -81.475262199593, 100.90395560176], [-120.64452406974, -80.059052025033, 102.83896078975], [-120.74502560706, -78.642841850472, 104.77396597774], [-120.84552714438, -77.226631675912, 106.70897498042], [-120.94602868171, -75.810421501351, 108.64398016841], [-121.04653021903, -74.394211326791, 110.5789853564], [-121.14703175635, -72.97800115223, 112.51399054439], [-121.24753329368, -71.561790977669, 114.44899573238], [-121.348034831, -70.145580803109, 116.38400473506], [-121.44853636832, -68.729370628548, 118.31900992305], [-121.54903838248, -67.313160453988, 120.25401511104], [-121.64953991981, -65.896948372079, 122.18902029903], [-121.75004145713, -64.480738197518, 124.12402548701], [-121.85054299445, -63.064528022958, 126.0590344897], [-121.95104453177, -61.648317848397, 127.99403586299], [-122.0515460691, -60.232107673836, 129.92904105098], [-122.15204760642, -58.815897499276, 131.86405386836], [-122.25254914374, -57.399687324715, 133.79905905635], [-122.35305068107, -55.983477150155, 135.73406424434], [-122.45355221839, -54.567266975594, 137.66906943233], [-122.55405375571, -53.151056801034, 139.60407462032], [-122.65455529304, -51.734846626473, 141.5390798083], [-122.75505683036, -50.318636451913, 143.47408499629], [-122.85555836768, -48.902426277352, 145.40909018428], [-122.956059905, -47.486216102792, 147.34409537227], [-123.05656191916, -46.070005928231, 149.27910056026], [-123.15706345649, -44.65379575367, 151.21411337764], [-123.25756499381, -43.23758557911, 153.14911856563], [-123.35806653113, -41.821375404549, 155.08412375362], [-123.45856806846, -40.405165229989, 157.0191289416], [-123.55906960578, -38.988955055428, 158.95413412959], [-123.6595711431, -37.572744880868, 160.88913931758]], "InstanceCreationTime": ["173258.671000", "173258.593000", "173258.671000", "173258.609000", "173258.671000", "173258.609000", "173258.671000", "173258.609000", "173258.671000", "173258.609000", "173258.671000", "173258.609000", "173258.671000", "173258.609000", "173258.687000", "173258.625000", "173258.687000", "173258.625000", "173258.687000", "173258.625000", "173258.687000", "173258.625000", "173258.687000", "173258.625000", "173258.687000", "173258.625000", "173258.687000", "173258.625000", "173258.687000", "173258.625000", "173258.687000", "173258.625000", "173258.703000", "173258.640000", "173258.703000", "173258.640000", "173258.703000", "173258.640000", "173258.703000", "173258.640000", "173258.718000", "173258.640000", "173258.718000", "173258.640000", "173258.718000", "173258.640000", "173258.718000", "173258.640000", "173258.718000", "173258.656000", "173258.734000", "173258.656000", "173258.734000", "173258.656000", "173258.734000", "173258.656000", "173258.734000", "173258.656000", "173258.734000", "173258.656000", "173258.734000", "173258.656000", "173258.734000", "173258.656000", "173258.750000", "173258.656000", "173258.750000", "173258.671000"], "InstanceNumber": [1, 2, 3, 4, 5, 6, 7, 8, 9, 10, 11, 12, 13, 14, 15, 16, 17, 18, 19, 20, 21, 22, 23, 24, 25, 26, 27, 28, 29, 30, 31, 32, 33, 34, 35, 36, 37, 38, 39, 40, 41, 42, 43, 44, 45, 46, 47, 48, 49, 50, 51, 52, 53, 54, 55, 56, 57, 58, 59, 60, 61, 62, 63, 64, 65, 66, 67, 68], "LargestImagePixelValue": [4093, 4094, 4094, 4094, 4094, 4094, 4094, 4094, 4094, 4094, 4094, 4094, 4094, 4094, 4094, 4094, 4094, 4094, 4092, 4093, 4094, 4093, 4094, 4091, 4094, 4089, 4092, 4094, 4094, 4093, 4092, 4093, 4093, 4094, 4090, 4093, 4091, 4094, 4091, 4092, 4094, 4092, 4094, 4094, 4094, 4093, 4094, 4094, 4094, 4093, 4092, 4092, 4094, 4092, 4093, 4093, 4093, 4094, 4094, 4094, 4094, 4091, 4094, 4094, 4093, 4093, 4093, 4094], "SliceLocation": [-48.075617289985, -45.67561639904, -43.2756170459, -40.875617687767, -38.475616796822, -36.075617443682, -33.675618090541, -31.275617194605, -28.875617841464, -26.475617719421, -24.075617597379, -21.675617475336, -19.275617343309, -16.875617605718, -14.475617868126, -12.075617746083, -9.6756178162663, -7.2756173236978, -4.8756173938806, -2.4756174640635, -0.0756173320368, 2.3243827900059, 4.7243821431463, 7.124382265189, 9.5243825279196, 11.924382649962, 14.324382038275, 16.724382974376, 19.12438239786, 21.524381751, 23.924382641945, 26.32438200507, 28.72438317739, 31.124382530531, 33.524383421476, 35.924382774616, 38.324382127757, 40.724381480897, 43.124380834038, 45.524383262787, 47.924382615928, 50.324381969068, 52.724381322208, 55.124380675349, 57.524383104098, 59.924382457239, 62.324381830347, 64.72438230899, 67.124381662131, 69.52438409088, 71.924380368412, 74.324379721552, 76.724385225911, 79.124384579051, 81.524383932192, 83.924383285332, 86.324382638473, 88.724381991613, 91.124381344753, 93.524380697894, 95.924380051034, 98.324379424143, 100.7243849285, 103.12438428164, 105.52438363478, 107.92438298792, 110.32438234106, 112.7243816942], "SmallestImagePixelValue": [0, 0, 0, 0, 1, 0, 1, 1, 0, 0, 0, 0, 0, 0, 0, 0, 0, 0, 0, 0, 1, 14, 0, 0, 2, 2, 4, 1, 3, 12, 1, 0, 1, 3, 4, 1, 3, 0, 0, 7, 0, 0, 0, 0, 2, 2, 1, 1, 0, 0, 1, 2, 1, 3, 1, 1, 1, 0, 0, 2, 0, 0, 0, 1, 0, 0, 1, 2], "WindowCenter": [-332.0, -260.0, -192.0, -200.0, -186.0, -202.0, -250.0, -230.0, -320.0, -406.0, -322.0, -258.0, -496.0, -518.0, -622.0, -600.0, -568.0, -546.0, -540.0, -544.0, -484.0, -480.0, -466.0, -428.0, -428.0, -390.0, -368.0, -350.0, -312.0, -298.0, -272.0, -286.0, -292.0, -226.0, -194.0, -234.0, -232.0, -228.0, -208.0, -190.0, -186.0, -178.0, -162.0, -158.0, -132.0, -150.0, -160.0, -170.0, -194.0, -196.0, -200.0, -188.0, -196.0, -202.0, -202.0, -244.0, -240.0, -252.0, -276.0, -282.0, -294.0, -308.0, -306.0, -358.0, -358.0, -426.0, -390.0, -446.0], "WindowWidth": [5122.0, 5848.0, 5944.0, 6072.0, 6354.0, 6358.0, 6234.0, 6080.0, 6030.0, 5862.0, 5736.0, 5932.0, 5036.0, 4976.0, 4946.0, 4890.0, 4868.0, 4802.0, 4750.0, 4742.0, 4712.0, 4668.0, 4598.0, 4616.0, 4554.0, 4490.0, 4380.0, 4334.0, 4266.0, 4220.0, 4130.0, 4076.0, 4024.0, 4074.0, 4074.0, 4098.0, 4090.0, 4116.0, 4088.0, 4126.0, 4136.0, 4184.0, 4232.0, 4266.0, 4256.0, 4286.0, 4296.0, 4308.0, 4286.0, 4294.0, 4286.0, 4306.0, 4304.0, 4300.0, 4322.0, 4338.0, 4358.0, 4354.0, 4338.0, 4422.0, 4412.0, 4450.0, 4522.0, 4574.0, 4602.0, 4718.0, 4830.0, 4864.0]}}}