{
    "AcquisitionMatrixPE": 96,
    "AcquisitionNumber": 1,
    "AcquisitionTime": "07:27:41.175000",
    "BandwidthPerPixelPhaseEncode": 33.602,
    "BaseResolution": 96,
    "BodyPartExamined": "BRAIN",
    "ConsistencyInfo": "N4_VD11D_LATEST_20110129",
    "ConversionSoftware": "dcm2niix",
    "ConversionSoftwareVersion": "v1.0.20210317",
    "DerivedVendorReportedEchoSpacing": 0.000620003,
    "DeviceSerialNumber": "45239",
    "DwellTime": 2.6e-06,
    "EchoTime": 0.03,
    "EchoTrainLength": 48,
    "EffectiveEchoSpacing": 0.000310001,
    "FlipAngle": 63,
    "ImageComments": "Unaliased MB4/PE3",
    "ImageOrientationPatientDICOM": [
        0.997843,
        0.0261132,
        0.0602209,
        0.0120012,
        0.829412,
        -0.558509
    ],
    "ImageType": [
        "ORIGINAL",
        "PRIMARY",
        "M",
        "ND",
        "NORM",
        "MOSAIC"
    ],
    "ImagingFrequency": 123.193,
    "InPlanePhaseEncodingDirectionDICOM": "COL",
    "InstitutionAddress": "E 24th St. 100,Austin,Southmiddle,US,78712",
    "InstitutionName": "Univ of Texas at Austin",
    "InstitutionalDepartmentName": "IRC",
    "MRAcquisitionType": "2D",
    "MagneticFieldStrength": 3,
    "Manufacturer": "Siemens",
    "ManufacturersModelName": "Skyra",
    "Modality": "MR",
    "MultibandAccelerationFactor": 4,
    "ParallelReductionFactorInPlane": 2,
    "PartialFourier": 1,
    "PatientPosition": "HFS",
    "PercentPhaseFOV": 100,
    "PercentSampling": 100,
    "PhaseEncodingDirection": "j-",
    "PhaseEncodingSteps": 96,
    "PhaseResolution": 1,
    "PixelBandwidth": 2005,
    "ProcedureStepDescription": "Poldrack2^self-scanning",
    "ProtocolName": "Resting State fMRI MBEPI_matrix96_BW2004",
    "PulseSequenceDetails": "%CustomerSeq%\\cmrr_mbep2d_bold",
    "ReceiveCoilActiveElements": "HEA;HEP",
    "ReceiveCoilName": "Head_32",
    "ReconMatrixPE": 96,
    "RefLinesPE": 94,
    "RepetitionTime": 1.16,
    "SAR": 0.0979786,
    "ScanOptions": "FS",
    "ScanningSequence": "EP",
    "SequenceName": "epfid2d1_96",
    "SequenceVariant": "SK",
    "SeriesDescription": "Resting State fMRI MBEPI_matrix96_BW2004",
    "SeriesNumber": 9,
    "ShimSetting": [
        -2780,
        8054,
        -15444,
        190,
        -208,
        68,
        85,
        -92
    ],
    "SliceThickness": 2,
    "SliceTiming": [
        0,
        0.4975,
        0.9975,
        0.355,
        0.855,
        0.2125,
        0.7125,
        0.07,
        0.57,
        1.0675,
        0.4275,
        0.925,
        0.285,
        0.7825,
        0.1425,
        0.64,
        0,
        0.4975,
        0.9975,
        0.355,
        0.855,
        0.2125,
        0.7125,
        0.07,
        0.57,
        1.0675,
        0.4275,
        0.925,
        0.285,
        0.7825,
        0.1425,
        0.64,
        0,
        0.4975,
        0.9975,
        0.355,
        0.855,
        0.2125,
        0.7125,
        0.07,
        0.57,
        1.0675,
        0.4275,
        0.925,
        0.285,
        0.7825,
        0.1425,
        0.64,
        0,
        0.4975,
        0.9975,
        0.355,
        0.855,
        0.2125,
        0.7125,
        0.07,
        0.57,
        1.0675,
        0.4275,
        0.925,
        0.285,
        0.7825,
        0.1425,
        0.64
    ],
    "SoftwareVersions": "syngo MR D11",
    "SpacingBetweenSlices": 2.4,
    "StationName": "AWP45239",
    "TaskName": "Resting fmri",
    "TotalReadoutTime": 0.0294501,
    "TxRefAmp": 346.188,
    "WipMemBlock": "b3b750f0-9425-41b1-8dce-e87ce3a6d3fb||Sequence: VD11D r195; Nov 21 2012 15:36:10 by eja",
    "dcmmeta_affine": [
        [
            -2.3906664848327637,
            0.028752870857715607,
            0.15487758815288544,
            114.03795623779297
        ],
        [
            -0.06256283819675446,
            1.9871318340301514,
            -1.3392655849456787,
            -70.39136505126953
        ],
        [
            0.1442791372537613,
            1.3380945920944214,
            1.985542893409729,
            -95.7562484741211
        ],
        [
            0.0,
            0.0,
            0.0,
            1.0
        ]
    ],
    "dcmmeta_reorient_transform": [
        [
            0.0,
            -1.0,
            0.0,
            95.0
        ],
        [
            1.0,
            0.0,
            0.0,
            0.0
        ],
        [
            0.0,
            0.0,
            1.0,
            0.0
        ],
        [
            0.0,
            0.0,
            0.0,
            1.0
        ]
    ],
    "dcmmeta_shape": [
        96,
        96,
        64,
        518
    ],
    "dcmmeta_slice_dim": 2,
    "dcmmeta_version": 0.6,
    "global": {
        "const": {
            "AcquisitionMatrix": [
                96,
                0,
                0,
                96
            ],
            "AngioFlag": "N",
            "BitsAllocated": 16,
            "BitsStored": 16,
            "BodyPartExamined": "BRAIN",
            "Columns": 768,
            "EchoNumbers": 1,
            "EchoTime": 30.0,
            "EchoTrainLength": 48,
            "FlipAngle": 63.0,
            "HighBit": 15,
            "ImageOrientationPatient": [
                0.99784344954173,
                0.02611318396881,
                0.06022085875904,
                0.01200119867418,
                0.82941159981826,
                -0.5585090592974
            ],
            "ImagePositionPatient": [
                -929.69439377527,
                -807.08359132077,
                432.4847282115
            ],
            "ImageType": [
                "ORIGINAL",
                "PRIMARY",
                "M",
                "ND",
                "NORM",
                "MOSAIC"
            ],
            "ImagedNucleus": "1H",
            "ImagingFrequency": 123.193339,
            "InPlanePhaseEncodingDirection": "COL",
            "MRAcquisitionType": "2D",
            "MagneticFieldStrength": 3.0,
            "Manufacturer": "SIEMENS",
            "ManufacturerModelName": "Skyra",
            "Modality": "MR",
            "NumberOfAverages": 1.0,
            "NumberOfPhaseEncodingSteps": 96,
            "PercentPhaseFieldOfView": 100.0,
            "PercentSampling": 100.0,
            "PerformedProcedureStepStartTime": "070954.593000",
            "PhotometricInterpretation": "MONOCHROME2",
            "PixelBandwidth": 2005.0,
            "PixelRepresentation": 0,
            "PixelSpacing": [
                2.3958332538605,
                2.3958332538605
            ],
            "ProtocolName": "Resting State fMRI MBEPI_matrix96_BW2004",
            "RepetitionTime": 1160.0,
            "Rows": 768,
            "SAR": 0.09797863167576,
            "SamplesPerPixel": 1,
            "ScanOptions": "FS",
            "ScanningSequence": "EP",
            "SequenceName": "epfid2d1_96",
            "SequenceVariant": "SK",
            "SeriesDescription": "Resting State fMRI MBEPI_matrix96_BW2004",
            "SeriesNumber": 9,
            "SeriesTime": "072825.609000",
            "SliceLocation": -32.580613897065,
            "SliceThickness": 2.0,
            "SmallestImagePixelValue": 0,
            "SoftwareVersions": "syngo MR D11",
            "SpacingBetweenSlices": 2.4000000354019,
            "SpecificCharacterSet": "ISO_IR 100",
            "StudyID": "1",
            "StudyTime": "070954.562000",
            "TransmitCoilName": "Body",
            "VariableFlipAngleFlag": "N",
            "WindowCenterWidthExplanation": "Algo1",
            "dBdt": 0.0
        },
        "slices": {}
    },
    "time": {
        "samples": {
            "AcquisitionNumber": [
                1,
                2,
                3,
                4,
                5,
                6,
                7,
                8,
                9,
                10,
                11,
                12,
                13,
                14,
                15,
                16,
                17,
                18,
                19,
                20,
                21,
                22,
                23,
                24,
                25,
                26,
                27,
                28,
                29,
                30,
                31,
                32,
                33,
                34,
                35,
                36,
                37,
                38,
                39,
                40,
                41,
                42,
                43,
                44,
                45,
                46,
                47,
                48,
                49,
                50,
                51,
                52,
                53,
                54,
                55,
                56,
                57,
                58,
                59,
                60,
                61,
                62,
                63,
                64,
                65,
                66,
                67,
                68,
                69,
                70,
                71,
                72,
                73,
                74,
                75,
                76,
                77,
                78,
                79,
                80,
                81,
                82,
                83,
                84,
                85,
                86,
                87,
                88,
                89,
                90,
                91,
                92,
                93,
                94,
                95,
                96,
                97,
                98,
                99,
                100,
                101,
                102,
                103,
                104,
                105,
                106,
                107,
                108,
                109,
                110,
                111,
                112,
                113,
                114,
                115,
                116,
                117,
                118,
                119,
                120,
                121,
                122,
                123,
                124,
                125,
                126,
                127,
                128,
                129,
                130,
                131,
                132,
                133,
                134,
                135,
                136,
                137,
                138,
                139,
                140,
                141,
                142,
                143,
                144,
                145,
                146,
                147,
                148,
                149,
                150,
                151,
                152,
                153,
                154,
                155,
                156,
                157,
                158,
                159,
                160,
                161,
                162,
                163,
                164,
                165,
                166,
                167,
                168,
                169,
                170,
                171,
                172,
                173,
                174,
                175,
                176,
                177,
                178,
                179,
                180,
                181,
                182,
                183,
                184,
                185,
                186,
                187,
                188,
                189,
                190,
                191,
                192,
                193,
                194,
                195,
                196,
                197,
                198,
                199,
                200,
                201,
                202,
                203,
                204,
                205,
                206,
                207,
                208,
                209,
                210,
                211,
                212,
                213,
                214,
                215,
                216,
                217,
                218,
                219,
                220,
                221,
                222,
                223,
                224,
                225,
                226,
                227,
                228,
                229,
                230,
                231,
                232,
                233,
                234,
                235,
                236,
                237,
                238,
                239,
                240,
                241,
                242,
                243,
                244,
                245,
                246,
                247,
                248,
                249,
                250,
                251,
                252,
                253,
                254,
                255,
                256,
                257,
                258,
                259,
                260,
                261,
                262,
                263,
                264,
                265,
                266,
                267,
                268,
                269,
                270,
                271,
                272,
                273,
                274,
                275,
                276,
                277,
                278,
                279,
                280,
                281,
                282,
                283,
                284,
                285,
                286,
                287,
                288,
                289,
                290,
                291,
                292,
                293,
                294,
                295,
                296,
                297,
                298,
                299,
                300,
                301,
                302,
                303,
                304,
                305,
                306,
                307,
                308,
                309,
                310,
                311,
                312,
                313,
                314,
                315,
                316,
                317,
                318,
                319,
                320,
                321,
                322,
                323,
                324,
                325,
                326,
                327,
                328,
                329,
                330,
                331,
                332,
                333,
                334,
                335,
                336,
                337,
                338,
                339,
                340,
                341,
                342,
                343,
                344,
                345,
                346,
                347,
                348,
                349,
                350,
                351,
                352,
                353,
                354,
                355,
                356,
                357,
                358,
                359,
                360,
                361,
                362,
                363,
                364,
                365,
                366,
                367,
                368,
                369,
                370,
                371,
                372,
                373,
                374,
                375,
                376,
                377,
                378,
                379,
                380,
                381,
                382,
                383,
                384,
                385,
                386,
                387,
                388,
                389,
                390,
                391,
                392,
                393,
                394,
                395,
                396,
                397,
                398,
                399,
                400,
                401,
                402,
                403,
                404,
                405,
                406,
                407,
                408,
                409,
                410,
                411,
                412,
                413,
                414,
                415,
                416,
                417,
                418,
                419,
                420,
                421,
                422,
                423,
                424,
                425,
                426,
                427,
                428,
                429,
                430,
                431,
                432,
                433,
                434,
                435,
                436,
                437,
                438,
                439,
                440,
                441,
                442,
                443,
                444,
                445,
                446,
                447,
                448,
                449,
                450,
                451,
                452,
                453,
                454,
                455,
                456,
                457,
                458,
                459,
                460,
                461,
                462,
                463,
                464,
                465,
                466,
                467,
                468,
                469,
                470,
                471,
                472,
                473,
                474,
                475,
                476,
                477,
                478,
                479,
                480,
                481,
                482,
                483,
                484,
                485,
                486,
                487,
                488,
                489,
                490,
                491,
                492,
                493,
                494,
                495,
                496,
                497,
                498,
                499,
                500,
                501,
                502,
                503,
                504,
                505,
                506,
                507,
                508,
                509,
                510,
                511,
                512,
                513,
                514,
                515,
                516,
                517,
                518
            ],
            "AcquisitionTime": [
                "072741.175000",
                "072810.175000",
                "072811.335000",
                "072812.495000",
                "072813.655000",
                "072814.815000",
                "072815.975000",
                "072817.135000",
                "072818.295000",
                "072819.455000",
                "072820.615000",
                "072821.775000",
                "072822.935000",
                "072824.095000",
                "072825.255000",
                "072826.415000",
                "072827.575000",
                "072828.735000",
                "072829.895000",
                "072831.055000",
                "072832.215000",
                "072833.375000",
                "072834.535000",
                "072835.695000",
                "072836.855000",
                "072838.015000",
                "072839.175000",
                "072840.335000",
                "072841.495000",
                "072842.655000",
                "072843.815000",
                "072844.975000",
                "072846.135000",
                "072847.295000",
                "072848.455000",
                "072849.615000",
                "072850.775000",
                "072851.935000",
                "072853.095000",
                "072854.255000",
                "072855.415000",
                "072856.575000",
                "072857.735000",
                "072858.895000",
                "072900.055000",
                "072901.215000",
                "072902.375000",
                "072903.535000",
                "072904.695000",
                "072905.855000",
                "072907.015000",
                "072908.175000",
                "072909.335000",
                "072910.495000",
                "072911.655000",
                "072912.815000",
                "072913.975000",
                "072915.135000",
                "072916.295000",
                "072917.455000",
                "072918.615000",
                "072919.775000",
                "072920.935000",
                "072922.095000",
                "072923.255000",
                "072924.415000",
                "072925.575000",
                "072926.735000",
                "072927.895000",
                "072929.055000",
                "072930.215000",
                "072931.375000",
                "072932.535000",
                "072933.695000",
                "072934.855000",
                "072936.015000",
                "072937.175000",
                "072938.335000",
                "072939.495000",
                "072940.655000",
                "072941.815000",
                "072942.975000",
                "072944.135000",
                "072945.295000",
                "072946.455000",
                "072947.615000",
                "072948.775000",
                "072949.935000",
                "072951.095000",
                "072952.255000",
                "072953.415000",
                "072954.575000",
                "072955.735000",
                "072956.895000",
                "072958.055000",
                "072959.215000",
                "073000.375000",
                "073001.535000",
                "073002.695000",
                "073003.855000",
                "073005.015000",
                "073006.175000",
                "073007.335000",
                "073008.495000",
                "073009.655000",
                "073010.815000",
                "073011.975000",
                "073013.135000",
                "073014.295000",
                "073015.455000",
                "073016.615000",
                "073017.775000",
                "073018.935000",
                "073020.095000",
                "073021.255000",
                "073022.415000",
                "073023.575000",
                "073024.735000",
                "073025.895000",
                "073027.055000",
                "073028.215000",
                "073029.375000",
                "073030.535000",
                "073031.695000",
                "073032.855000",
                "073034.015000",
                "073035.175000",
                "073036.335000",
                "073037.495000",
                "073038.655000",
                "073039.815000",
                "073040.975000",
                "073042.135000",
                "073043.295000",
                "073044.455000",
                "073045.615000",
                "073046.775000",
                "073047.935000",
                "073049.095000",
                "073050.255000",
                "073051.415000",
                "073052.575000",
                "073053.735000",
                "073054.895000",
                "073056.055000",
                "073057.215000",
                "073058.375000",
                "073059.535000",
                "073100.695000",
                "073101.855000",
                "073103.015000",
                "073104.175000",
                "073105.335000",
                "073106.495000",
                "073107.655000",
                "073108.815000",
                "073109.975000",
                "073111.135000",
                "073112.295000",
                "073113.455000",
                "073114.617500",
                "073115.777500",
                "073116.937500",
                "073118.097500",
                "073119.257500",
                "073120.417500",
                "073121.577500",
                "073122.737500",
                "073123.897500",
                "073125.057500",
                "073126.217500",
                "073127.377500",
                "073128.537500",
                "073129.697500",
                "073130.857500",
                "073132.017500",
                "073133.177500",
                "073134.337500",
                "073135.497500",
                "073136.657500",
                "073137.817500",
                "073138.977500",
                "073140.137500",
                "073141.297500",
                "073142.457500",
                "073143.617500",
                "073144.777500",
                "073145.937500",
                "073147.097500",
                "073148.257500",
                "073149.417500",
                "073150.577500",
                "073151.737500",
                "073152.897500",
                "073154.057500",
                "073155.217500",
                "073156.377500",
                "073157.537500",
                "073158.697500",
                "073159.857500",
                "073201.017500",
                "073202.177500",
                "073203.337500",
                "073204.497500",
                "073205.657500",
                "073206.817500",
                "073207.977500",
                "073209.137500",
                "073210.297500",
                "073211.457500",
                "073212.617500",
                "073213.777500",
                "073214.937500",
                "073216.097500",
                "073217.257500",
                "073218.417500",
                "073219.577500",
                "073220.737500",
                "073221.897500",
                "073223.057500",
                "073224.217500",
                "073225.377500",
                "073226.537500",
                "073227.697500",
                "073228.857500",
                "073230.017500",
                "073231.177500",
                "073232.337500",
                "073233.497500",
                "073234.657500",
                "073235.817500",
                "073236.977500",
                "073238.137500",
                "073239.297500",
                "073240.457500",
                "073241.617500",
                "073242.777500",
                "073243.937500",
                "073245.097500",
                "073246.257500",
                "073247.417500",
                "073248.577500",
                "073249.737500",
                "073250.897500",
                "073252.057500",
                "073253.217500",
                "073254.377500",
                "073255.537500",
                "073256.697500",
                "073257.857500",
                "073259.017500",
                "073300.177500",
                "073301.337500",
                "073302.497500",
                "073303.657500",
                "073304.817500",
                "073305.977500",
                "073307.137500",
                "073308.297500",
                "073309.457500",
                "073310.617500",
                "073311.777500",
                "073312.937500",
                "073314.097500",
                "073315.257500",
                "073316.417500",
                "073317.577500",
                "073318.737500",
                "073319.897500",
                "073321.057500",
                "073322.217500",
                "073323.377500",
                "073324.537500",
                "073325.697500",
                "073326.857500",
                "073328.017500",
                "073329.177500",
                "073330.337500",
                "073331.497500",
                "073332.657500",
                "073333.817500",
                "073334.977500",
                "073336.137500",
                "073337.297500",
                "073338.457500",
                "073339.617500",
                "073340.777500",
                "073341.937500",
                "073343.097500",
                "073344.257500",
                "073345.417500",
                "073346.577500",
                "073347.737500",
                "073348.897500",
                "073350.057500",
                "073351.217500",
                "073352.377500",
                "073353.537500",
                "073354.697500",
                "073355.857500",
                "073357.017500",
                "073358.177500",
                "073359.337500",
                "073400.497500",
                "073401.657500",
                "073402.817500",
                "073403.977500",
                "073405.137500",
                "073406.297500",
                "073407.457500",
                "073408.617500",
                "073409.777500",
                "073410.937500",
                "073412.097500",
                "073413.257500",
                "073414.417500",
                "073415.577500",
                "073416.737500",
                "073417.897500",
                "073419.057500",
                "073420.217500",
                "073421.377500",
                "073422.537500",
                "073423.697500",
                "073424.857500",
                "073426.017500",
                "073427.177500",
                "073428.337500",
                "073429.497500",
                "073430.657500",
                "073431.817500",
                "073432.977500",
                "073434.137500",
                "073435.297500",
                "073436.457500",
                "073437.617500",
                "073438.777500",
                "073439.937500",
                "073441.097500",
                "073442.257500",
                "073443.417500",
                "073444.577500",
                "073445.737500",
                "073446.897500",
                "073448.057500",
                "073449.217500",
                "073450.377500",
