{"AcquisitionMatrixPE": 96, "AcquisitionNumber": 1, "AcquisitionTime": "07:34:2.077500", "BaseResolution": 96, "BodyPartExamined": "BRAIN", "ConsistencyInfo": "N4_VD11D_LATEST_20110129", "ConversionSoftware": "dcm2niix", "ConversionSoftwareVersion": "v1.0.20210317", "DeviceSerialNumber": "45239", "DwellTime": 9.2e-06, "EchoNumber": 2, "EchoTime": 0.00738, "EchoTime1": 0.00492, "EchoTime2": 0.00738, "FlipAngle": 50, "ImageOrientationPatientDICOM": [0.99943, 0.0123297, 0.0314426, 0.00643396, 0.844425, -0.535635], "ImageType": ["ORIGINAL", "PRIMARY", "P", "ND", "PHASE"], "ImagingFrequency": 123.193, "InPlanePhaseEncodingDirectionDICOM": "COL", "InstitutionAddress": "E 24th St. 100,Austin,Southmiddle,US,78712", "InstitutionName": "Univ of Texas at Austin", "InstitutionalDepartmentName": "IRC", "MRAcquisitionType": "2D", "MagneticFieldStrength": 3, "Manufacturer": "Siemens", "ManufacturersModelName": "Skyra", "Modality": "MR", "PartialFourier": 1, "PatientPosition": "HFS", "PercentPhaseFOV": 100, "PercentSampling": 100, "PhaseEncodingDirection": "j-", "PhaseEncodingSteps": 96, "PhaseResolution": 1, "PixelBandwidth": 565, "ProcedureStepDescription": "Poldrack2^self-scanning", "ProtocolName": "gre_field_mapping", "PulseSequenceDetails": "%SiemensSeq%\\gre_field_mapping", "ReceiveCoilActiveElements": "HEA;HEP", "ReceiveCoilName": "Head_32", "ReconMatrixPE": 96, "RepetitionTime": 0.731, "SAR": 0.112869, "ScanningSequence": "GR", "SequenceName": "*fm2d2r", "SequenceVariant": "SP", "SeriesDescription": "gre_field_mapping", "SeriesNumber": 11, "ShimSetting": [-2771, 8062, -15425, 194, -211, 210, 213, -72], "SliceThickness": 2, "SliceTiming": [0.36719, 0, 0.375, 0.00781, 0.39062, 0.02344, 0.39844, 0.03125, 0.40625, 0.04688, 0.42188, 0.05469, 0.42969, 0.07031, 0.44531, 0.07812, 0.45312, 0.08594, 0.46094, 0.10156, 0.47656, 0.10938, 0.48438, 0.11719, 0.5, 0.13281, 0.50781, 0.14062, 0.51562, 0.14844, 0.53125, 0.16406, 0.53906, 0.17188, 0.54688, 0.1875, 0.5625, 0.19531, 0.57031, 0.20312, 0.57812, 0.21875, 0.59375, 0.22656, 0.60156, 0.23438, 0.61719, 0.25, 0.625, 0.25781, 0.63281, 0.26562, 0.64844, 0.28125, 0.65625, 0.28906, 0.66406, 0.30469, 0.67969, 0.3125, 0.6875, 0.32031, 0.69531, 0.33594, 0.71094, 0.34375, 0.71875, 0.35938], "SoftwareVersions": "syngo MR D11", "SpacingBetweenSlices": 2.4, "StationName": "AWP45239", "TxRefAmp": 333.943, "dcmmeta_affine": [[-2.3944664001464844, 0.01541470643132925, 0.07957267761230469, 115.25556945800781], [-0.02953989803791046, 2.0231010913848877, -1.2852783203125, -69.6381607055664], [0.07533133774995804, 1.2832932472229004, 2.0252761840820312, -94.79769897460938], [0.0, 0.0, 0.0, 1.0]], "dcmmeta_reorient_transform": [[0.0, -1.0, 0.0, 95.0], [1.0, 0.0, 0.0, 0.0], [0.0, 0.0, -1.0, 67.0], [0.0, 0.0, 0.0, 1.0]], "dcmmeta_shape": [96, 96, 68], "dcmmeta_slice_dim": 2, "dcmmeta_version": 0.6, "global": {"const": {"AcquisitionMatrix": [96, 0, 0, 96], "AcquisitionNumber": 1, "AngioFlag": "N", "BitsAllocated": 16, "BitsStored": 12, "BodyPartExamined": "BRAIN", "Columns": 96, "EchoNumbers": 2, "EchoTime": 7.38, "EchoTrainLength": 0, "FlipAngle": 50.0, "HighBit": 11, "ImageOrientationPatient": [0.99942950656147, 0.01232969679323, 0.0314426460605, 0.00643396476933, 0.84442481050108, -0.5356354576646], "ImageType": ["ORIGINAL", "PRIMARY", "P", "ND"], "ImagedNucleus": "1H", "ImagingFrequency": 123.193334, "InPlanePhaseEncodingDirection": "COL", "MRAcquisitionType": "2D", "MagneticFieldStrength": 3.0, "Manufacturer": "SIEMENS", "ManufacturerModelName": "Skyra", "Modality": "MR", "NumberOfAverages": 1.0, "NumberOfPhaseEncodingSteps": 96, "PercentPhaseFieldOfView": 100.0, "PercentSampling": 100.0, "PerformedProcedureStepStartTime": "071130.921000", "PhotometricInterpretation": "MONOCHROME2", "PixelBandwidth": 565.0, "PixelRepresentation": 0, "PixelSpacing": [2.3958332538605, 2.3958332538605], "ProtocolName": "gre_field_mapping", "RepetitionTime": 731.0, "RescaleIntercept": -4096.0, "RescaleSlope": 2.0, "RescaleType": "US", "Rows": 96, "SAR": 0.11286851497039, "SamplesPerPixel": 1, "ScanningSequence": "GR", "SequenceName": "*fm2d2r", "SequenceVariant": "SP", "SeriesDescription": "gre_field_mapping", "SeriesNumber": 11, "SeriesTime": "073624.078000", "SliceThickness": 2.0, "SoftwareVersions": "syngo MR D11", "SpacingBetweenSlices": 2.4, "SpecificCharacterSet": "ISO_IR 100", "StudyID": "1", "StudyTime": "071130.875000", "TransmitCoilName": "Body", "VariableFlipAngleFlag": "N", "WindowCenterWidthExplanation": "Algo1", "dBdt": 0.0}, "slices": {"AcquisitionTime": ["073402.077500", "073401.712500", "073402.087500", "073401.722500", "073402.100000", "073401.732500", "073402.110000", "073401.745000", "073402.120000", "073401.755000", "073402.132500", "073401.765000", "073402.142500", "073401.777500", "073402.152500", "073401.787500", "073402.162500", "073401.797500", "073402.175000", "073401.810000", "073402.185000", "073401.820000", "073402.195000", "073401.830000", "073402.207500", "073401.840000", "073402.217500", "073401.852500", "073402.227500", "073401.862500", "073402.240000", "073401.872500", "073402.250000", "073401.885000", "073402.260000", "073401.895000", "073402.270000", "073401.905000", "073402.282500", "073401.917500", "073402.292500", "073401.927500", "073402.302500", "073401.937500", "073402.315000", "073401.947500", "073402.325000", "073401.960000", "073402.335000", "073401.970000", "073402.347500", "073401.980000", "073402.357500", "073401.992500", "073402.367500", "073402.002500", "073402.377500", "073402.012500", "073402.390000", "073402.025000", "073402.400000", "073402.035000", "073402.410000", "073402.045000", "073402.422500", "073402.055000", "073402.432500", "073402.067500"], "ContentTime": ["073624.156000", "073624.093000", "073624.156000", "073624.093000", "073624.156000", "073624.093000", "073624.171000", "073624.093000", "073624.171000", "073624.093000", "073624.171000", "073624.093000", "073624.171000", "073624.093000", "073624.171000", "073624.093000", "073624.171000", "073624.109000", "073624.171000", "073624.109000", "073624.187000", "073624.109000", "073624.187000", "073624.109000", "073624.187000", "073624.109000", "073624.187000", "073624.109000", "073624.187000", "073624.109000", "073624.203000", "073624.109000", "073624.203000", "073624.125000", "073624.203000", "073624.125000", "073624.203000", "073624.125000", "073624.203000", "073624.125000", "073624.203000", "073624.125000", "073624.203000", "073624.125000", "073624.218000", "073624.125000", "073624.218000", "073624.140000", "073624.218000", "073624.140000", "073624.218000", "073624.140000", "073624.218000", "073624.140000", "073624.218000", "073624.140000", "073624.234000", "073624.140000", "073624.234000", "073624.156000", "073624.234000", "073624.156000", "073624.234000", "073624.156000", "073624.234000", "073624.156000", "073624.234000", "073624.156000"], "CsaImage.GSWDDataType": ["predicted", "predicted", "predicted", "predicted", "predicted", "predicted", "predicted", "predicted", "predicted", "predicted", "measured", "predicted", "measured", "predicted", "measured", "predicted", "measured", "predicted", "measured", "predicted", "measured", "predicted", "measured", "predicted", "measured", "predicted", "measured", "predicted", "measured", "predicted", "measured", "predicted", "measured", "predicted", "measured", "predicted", "measured", "predicted", "measured", "predicted", "measured", "predicted", "measured", "predicted", "measured", "predicted", "measured", "predicted", "measured", "predicted", "measured", "predicted", "measured", "predicted", "measured", "predicted", "measured", "predicted", "measured", "predicted", "measured", "predicted", "measured", "predicted", "measured", "predicted", "measured", "predicted"], "CsaImage.ICE_Dims": ["X_2_1_1_1_1_1_35_1_1_1_1_116", "X_2_1_1_1_1_1_1_1_1_2_1_116", "X_2_1_1_1_1_1_36_1_1_3_1_116", "X_2_1_1_1_1_1_2_1_1_4_1_116", "X_2_1_1_1_1_1_37_1_1_5_1_116", "X_2_1_1_1_1_1_3_1_1_6_1_116", "X_2_1_1_1_1_1_38_1_1_7_1_116", "X_2_1_1_1_1_1_4_1_1_8_1_116", "X_2_1_1_1_1_1_39_1_1_9_1_116", "X_2_1_1_1_1_1_5_1_1_10_1_116", "X_2_1_1_1_1_1_40_1_1_11_1_116", "X_2_1_1_1_1_1_6_1_1_12_1_116", "X_2_1_1_1_1_1_41_1_1_13_1_116", "X_2_1_1_1_1_1_7_1_1_14_1_116", "X_2_1_1_1_1_1_42_1_1_15_1_116", "X_2_1_1_1_1_1_8_1_1_16_1_116", "X_2_1_1_1_1_1_43_1_1_17_1_116", "X_2_1_1_1_1_1_9_1_1_18_1_116", "X_2_1_1_1_1_1_44_1_1_19_1_116", "X_2_1_1_1_1_1_10_1_1_20_1_116", "X_2_1_1_1_1_1_45_1_1_21_1_116", "X_2_1_1_1_1_1_11_1_1_22_1_116", "X_2_1_1_1_1_1_46_1_1_23_1_116", "X_2_1_1_1_1_1_12_1_1_24_1_116", "X_2_1_1_1_1_1_47_1_1_25_1_116", "X_2_1_1_1_1_1_13_1_1_26_1_116", "X_2_1_1_1_1_1_48_1_1_27_1_116", "X_2_1_1_1_1_1_14_1_1_28_1_116", "X_2_1_1_1_1_1_49_1_1_29_1_116", "X_2_1_1_1_1_1_15_1_1_30_1_116", "X_2_1_1_1_1_1_50_1_1_31_1_116", "X_2_1_1_1_1_1_16_1_1_32_1_116", "X_2_1_1_1_1_1_51_1_1_33_1_116", "X_2_1_1_1_1_1_17_1_1_34_1_116", "X_2_1_1_1_1_1_52_1_1_35_1_116", "X_2_1_1_1_1_1_18_1_1_36_1_116", "X_2_1_1_1_1_1_53_1_1_37_1_116", "X_2_1_1_1_1_1_19_1_1_38_1_116", "X_2_1_1_1_1_1_54_1_1_39_1_116", "X_2_1_1_1_1_1_20_1_1_40_1_116", "X_2_1_1_1_1_1_55_1_1_41_1_116", "X_2_1_1_1_1_1_21_1_1_42_1_116", "X_2_1_1_1_1_1_56_1_1_43_1_116", "X_2_1_1_1_1_1_22_1_1_44_1_116", "X_2_1_1_1_1_1_57_1_1_45_1_116", "X_2_1_1_1_1_1_23_1_1_46_1_116", "X_2_1_1_1_1_1_58_1_1_47_1_116", "X_2_1_1_1_1_1_24_1_1_48_1_116", "X_2_1_1_1_1_1_59_1_1_49_1_116", "X_2_1_1_1_1_1_25_1_1_50_1_116", "X_2_1_1_1_1_1_60_1_1_51_1_116", "X_2_1_1_1_1_1_26_1_1_52_1_116", "X_2_1_1_1_1_1_61_1_1_53_1_116", "X_2_1_1_1_1_1_27_1_1_54_1_116", "X_2_1_1_1_1_1_62_1_1_55_1_116", "X_2_1_1_1_1_1_28_1_1_56_1_116", "X_2_1_1_1_1_1_63_1_1_57_1_116", "X_2_1_1_1_1_1_29_1_1_58_1_116", "X_2_1_1_1_1_1_64_1_1_59_1_116", "X_2_1_1_1_1_1_30_1_1_60_1_116", "X_2_1_1_1_1_1_65_1_1_61_1_116", "X_2_1_1_1_1_1_31_1_1_62_1_116", "X_2_1_1_1_1_1_66_1_1_63_1_116", "X_2_1_1_1_1_1_32_1_1_64_1_116", "X_2_1_1_1_1_1_67_1_1_65_1_116", "X_2_1_1_1_1_1_33_1_1_66_1_116", "X_2_1_1_1_1_1_68_1_1_67_1_116", "X_2_1_1_1_1_1_34_1_1_68_1_116"], "CsaImage.ProtocolSliceNumber": [0, 1, 2, 3, 4, 5, 6, 7, 8, 9, 10, 11, 12, 13, 14, 15, 16, 17, 18, 19, 20, 21, 22, 23, 24, 25, 26, 27, 28, 29, 30, 31, 32, 33, 34, 35, 36, 37, 38, 39, 40, 41, 42, 43, 44, 45, 46, 47, 48, 49, 50, 51, 52, 53, 54, 55, 56, 57, 58, 59, 60, 61, 62, 63, 64, 65, 66, 67], "CsaImage.RFSWDDataType": ["predicted", "predicted", "predicted", "predicted", "predicted", "predicted", "predicted", "predicted", "measured", "predicted", "measured", "predicted", "measured", "predicted", "measured", "predicted", "measured", "predicted", "measured", "predicted", "measured", "predicted", "measured", "predicted", "measured", "predicted", "measured", "predicted", "measured", "predicted", "measured", "predicted", "measured", "predicted", "measured", "predicted", "measured", "predicted", "measured", "predicted", "measured", "predicted", "measured", "predicted", "measured", "predicted", "measured", "predicted", "measured", "predicted", "measured", "predicted", "measured", "predicted", "measured", "predicted", "measured", "predicted", "measured", "predicted", "measured", "predicted", "measured", "predicted", "measured", "predicted", "measured", "predicted"], "CsaImage.SlicePosition_PCS": [[-116.71998447, -122.55637094, 27.11537301], [-116.79955691, -121.27109262, 29.14064538], [-116.87912923, -119.9858162, 31.16591775], [-116.95870167, -118.70053788, 33.19119203], [-117.03827411, -117.41526147, 35.2164644], [-117.11784655, -116.12998315, 37.24173676], [-117.19741899, -114.84470674, 39.26701104], [-117.27699143, -113.55942937, 41.29228341], [-117.35656387, -112.274152, 43.31755673], [-117.43613631, -110.98887464, 45.3428291], [-117.51570874, -109.70359727, 47.36810243], [-117.59528118, -108.4183199, 49.3933748], [-117.6748535, -107.13304254, 51.41864812], [-117.75442594, -105.84776517, 53.44392096], [-117.83399838, -104.5624878, 55.46919405], [-117.91357082, -103.27721044, 57.49446693], [-117.99314326, -101.99193331, 59.51973986], [-118.0727157, -100.70665618, 61.54501283], [-118.15228814, -99.42137875, 63.57028567], [-118.23186058, -98.13610148, 65.59555852], [-118.31143302, -96.8508242, 67.62083184], [-118.39100546, -95.56554695, 69.64610421], [-118.4705779, -94.28026982, 71.67137753], [-118.55015034, -92.99499246, 73.69665086], [-118.62972277, -91.70971509, 75.72192323], [-118.70929521, -90.42443772, 77.7471956], [-118.78886765, -89.13916036, 79.77246987], [-118.86844009, -87.85388299, 81.79774224], [-118.94801253, -86.56860562, 83.82301461], [-119.02758473, -85.28332826, 85.84828889], [-119.10715717, -83.99805089, 87.87356126], [-119.18672961, -82.71277352, 89.89883363], [-119.26630205, -81.42749711, 91.9241079], [-119.34587449, -80.14221879, 93.94938027], [-119.42544693, -78.85694238, 95.97465264], [-119.50501937, -77.57166406, 97.99992501], [-119.58459181, -76.28638764, 100.02519738], [-119.66416425, -75.00110932, 102.05047357], [-119.74373668, -73.71583291, 104.07574594], [-119.82330936, -72.4305565, 106.1010183], [-119.90288156, -71.14527818, 108.12629067], [-119.98245376, -69.86000176, 110.15156304], [-120.06202644, -68.57472344, 112.17683541], [-120.14159864, -67.28944703, 114.20210778], [-120.22117132, -66.00417062, 116.22738397], [-120.30074352, -64.7188923, 118.25265634], [-120.3803162, -63.43361398, 120.2779287], [-120.4598884, -62.14833566, 122.30320107], [-120.53946108, -60.86306115, 124.32847726], [-120.61903328, -59.57778283, 126.35374581], [-120.69860595, -58.29250451, 128.379022], [-120.77817816, -57.00722619, 130.40429055], [-120.85775083, -55.72195169, 132.42956674], [-120.93732303, -54.43667337, 134.45483529], [-121.01689571, -53.15139504, 136.48011147], [-121.09646791, -51.86612054, 138.50538766], [-121.17604059, -50.58084222, 140.53065621], [-121.25561279, -49.2955639, 142.5559324], [-121.33518547, -48.01028558, 144.58120095], [-121.41475767, -46.72501107, 146.60647714], [-121.49433035, -45.43973275, 148.63174569], [-121.57390255, -44.15445443, 150.65702187], [-121.65347475, -42.86917611, 152.68229806], [-121.73304743, -41.58390161, 154.70756661], [-121.81261963, -40.29862329, 156.7328428], [-121.8921923, -39.01334497, 158.75811135], [-121.97176451, -37.72807046, 160.78338754], [-122.05133718, -36.44279214, 162.80866372]], "CsaImage.TimeAfterStart": [1.0975, 0.7325, 1.11, 0.745, 1.12, 0.755, 1.13, 0.765, 1.1425, 0.775, 1.1525, 0.7875, 1.1625, 0.7975, 1.175, 0.8075, 1.185, 0.82, 1.195, 0.83, 1.205, 0.84, 1.2175, 0.8525, 1.2275, 0.8625, 1.2375, 0.8725, 1.25, 0.8825, 1.26, 0.895, 1.27, 0.905, 1.2825, 0.915, 1.2925, 0.9275, 1.3025, 0.9375, 1.3125, 0.9475, 1.325, 0.96, 1.335, 0.97, 1.345, 0.98, 1.3575, 0.99, 1.3675, 1.0025, 1.3775, 1.0125, 1.39, 1.0225, 1.4, 1.035, 1.41, 1.045, 1.42, 1.055, 1.4325, 1.0675, 1.4425, 1.0775, 1.4525, 1.0875], "ImagePositionPatient": [[-116.71998447196, -122.55637093607, 27.115373010249], [-116.79955691116, -121.27109261575, 29.140645379633], [-116.87912923114, -119.98581620279, 31.165917749018], [-116.95870167034, -118.70053788248, 33.191192025752], [-117.03827410953, -117.41526146951, 35.216464395136], [-117.11784654872, -116.1299831492, 37.241736764521], [-117.19741898792, -114.84470673624, 39.267011041255], [-117.27699142711, -113.5594293696, 41.292283410639], [-117.3565638663, -112.27415200296, 43.317556733698], [-117.4361363055, -110.98887463632, 45.342829103083], [-117.51570874469, -109.70359726968, 47.368102426142], [-117.59528118389, -108.41831990305, 49.393374795527], [-117.67485350387, -107.13304253641, 51.418648118586], [-117.75442594306, -105.84776516977, 53.443920964808], [-117.83399838226, -104.56248780313, 55.469194049449], [-117.91357082145, -103.27721043649, 57.494466925473], [-117.99314326065, -101.99193330827, 59.519739861102], [-118.07271569984, -100.70665618005, 61.545012826533], [-118.15228813903, -99.42137875381, 63.570285672755], [-118.23186057823, -98.136101476579, 65.595558518977], [-118.31143301742, -96.850824199348, 67.620831842036], [-118.39100545661, -95.565546951919, 69.646104211421], [-118.47057789581, -94.280269823699, 71.67137753448], [-118.550150335, -92.994992457061, 73.696650857539], [-118.6297227742, -91.709715090423, 75.721923226924], [-118.70929521339, -90.424437723785, 77.747195596308], [-118.78886765258, -89.139160357147, 79.772469873042], [-118.86844009178, -87.853882990509, 81.797742242426], [-118.94801253097, -86.56860562387, 83.823014611811], [-119.02758473175, -85.283328257232, 85.848288888545], [-119.10715717094, -83.998050890594, 87.873561257929], [-119.18672961013, -82.712773523956, 89.898833627314], [-119.26630204933, -81.427497110992, 91.924107904048], [-119.34587448852, -80.142218790679, 93.949380273432], [-119.42544692771, -78.856942377716, 95.974652642817], [-119.50501936691, -77.571664057403, 97.999925012202], [-119.5845918061, -76.286387644439, 100.02519738159], [-119.6641642453, -75.001109324127, 102.05047356567], [-119.74373668449, -73.715832911163, 104.07574593505], [-119.8233093621, -72.430556498199, 106.10101830444], [-119.90288156288, -71.145278177886, 108.12629067382], [-119.98245376365, -69.860001764923, 110.15156304321], [-120.06202644126, -68.57472344461, 112.17683541259], [-120.14159864204, -67.289447031646, 114.20210778198], [-120.22117131965, -66.004170618682, 116.22738396606], [-120.30074352043, -64.71889229837, 118.25265633544], [-120.38031619804, -63.433613978057, 120.27792870483], [-120.45988839881, -62.148335657745, 122.30320107421], [-120.53946107643, -60.86306115213, 124.3284772583], [-120.6190332772, -59.577782831817, 126.35374581298], [-120.69860595481, -58.292504511505, 128.37902199707], [-120.77817815559, -57.007226191192, 130.40429055175], [-120.8577508332, -55.721951685577, 132.42956673583], [-120.93732303398, -54.436673365264, 134.45483529052], [-121.01689571159, -53.151395044952, 136.4801114746], [-121.09646791236, -51.866120539337, 138.50538765869], [-121.17604058998, -50.580842219024, 140.53065621337], [-121.25561279075, -49.295563898712, 142.55593239746], [-121.33518546836, -48.010285578399, 144.58120095214], [-121.41475766914, -46.725011072784, 146.60647713623], [-121.49433034675, -45.439732752471, 148.63174569091], [-121.57390254753, -44.154454432159, 150.65702187499], [-121.6534747483, -42.869176111846, 152.68229805908], [-121.73304742591, -41.583901606231, 154.70756661376], [-121.81261962669, -40.298623285919, 156.73284279785], [-121.8921923043, -39.013344965606, 158.75811135253], [-121.97176450508, -37.728070459991, 160.78338753662], [-122.05133718269, -36.442792139678, 162.8086637207]], "InstanceCreationTime": ["073624.156000", "073624.093000", "073624.156000", "073624.093000", "073624.156000", "073624.093000", "073624.171000", "073624.093000", "073624.171000", "073624.093000", "073624.171000", "073624.093000", "073624.171000", "073624.093000", "073624.171000", "073624.093000", "073624.171000", "073624.109000", "073624.171000", "073624.109000", "073624.187000", "073624.109000", "073624.187000", "073624.109000", "073624.187000", "073624.109000", "073624.187000", "073624.109000", "073624.187000", "073624.109000", "073624.203000", "073624.109000", "073624.203000", "073624.125000", "073624.203000", "073624.125000", "073624.203000", "073624.125000", "073624.203000", "073624.125000", "073624.203000", "073624.125000", "073624.203000", "073624.125000", "073624.218000", "073624.125000", "073624.218000", "073624.140000", "073624.218000", "073624.140000", "073624.218000", "073624.140000", "073624.218000", "073624.140000", "073624.218000", "073624.140000", "073624.234000", "073624.140000", "073624.234000", "073624.156000", "073624.234000", "073624.156000", "073624.234000", "073624.156000", "073624.234000", "073624.156000", "073624.234000", "073624.156000"], "InstanceNumber": [1, 2, 3, 4, 5, 6, 7, 8, 9, 10, 11, 12, 13, 14, 15, 16, 17, 18, 19, 20, 21, 22, 23, 24, 25, 26, 27, 28, 29, 30, 31, 32, 33, 34, 35, 36, 37, 38, 39, 40, 41, 42, 43, 44, 45, 46, 47, 48, 49, 50, 51, 52, 53, 54, 55, 56, 57, 58, 59, 60, 61, 62, 63, 64, 65, 66, 67, 68], "LargestImagePixelValue": [4093, 4094, 4092, 4094, 4094, 4094, 4094, 4093, 4094, 4094, 4094, 4092, 4092, 4093, 4094, 4093, 4093, 4091, 4094, 4091, 4094, 4094, 4092, 4094, 4094, 4089, 4094, 4088, 4090, 4094, 4093, 4094, 4094, 4093, 4089, 4092, 4086, 4092, 4094, 4091, 4093, 4094, 4094, 4091, 4094, 4091, 4091, 4092, 4093, 4092, 4093, 4094, 4093, 4094, 4093, 4094, 4093, 4093, 4094, 4094, 4094, 4094, 4094, 4094, 4094, 4094, 4094, 4094], "SliceLocation": [-38.881329287394, -36.481329224074, -34.081330186153, -31.68132851329, -29.281329471417, -26.881329408097, -24.481328756681, -22.081329204084, -19.681328846716, -17.281329294119, -14.881328936751, -12.481329384155, -10.081329030739, -7.6813290757566, -5.2813289195814, -2.8813289394499, -0.481329036701, 1.9186708911969, 4.3186708780995, 6.7186707852016, 9.1186710946893, 11.518670583446, 13.918670813133, 16.318671170501, 18.718670723098, 21.118670275694, 23.518671437833, 25.91867099043, 28.318670543027, 30.718671697261, 33.118671249858, 35.518670802455, 37.918671453871, 40.318671517191, 42.718670559064, 45.118670622385, 47.518669664258, 49.918672946663, 52.318671988536, 54.718671038315, 57.11867109373, 59.518670127699, 61.918670198924, 64.318669232892, 66.718671501755, 69.118671557171, 71.518671628395, 73.918671683811, 76.318672931227, 78.718669767558, 81.118673057867, 83.518669894198, 85.918671141614, 88.318667977945, 90.718671268254, 93.118672499861, 95.518669352002, 97.918672626501, 100.31866947864, 102.71867071025, 105.11866756239, 107.51867083689, 109.91867411139, 112.31866892064, 114.71867219514, 117.11866904728, 119.51867027888, 121.91867356919], "SmallestImagePixelValue": [0, 0, 0, 1, 0, 0, 0, 0, 0, 1, 1, 1, 3, 0, 0, 3, 0, 0, 1, 0, 3, 0, 6, 2, 5, 5, 8, 1, 1, 0, 0, 0, 4, 2, 4, 5, 5, 0, 1, 1, 5, 0, 3, 0, 0, 1, 3, 0, 2, 0, 0, 2, 0, 0, 2, 1, 0, 2, 0, 0, 0, 0, 0, 0, 0, 1, 0, 0], "WindowCenter": [-210.0, -234.0, -274.0, -294.0, -564.0, -528.0, -468.0, -472.0, -482.0, -490.0, -606.0, -568.0, -584.0, -506.0, -502.0, -492.0, -466.0, -454.0, -464.0, -404.0, -418.0, -410.0, -364.0, -308.0, -286.0, -272.0, -240.0, -240.0, -254.0, -242.0, -304.0, -284.0, -224.0, -210.0, -194.0, -168.0, -204.0, -172.0, -174.0, -134.0, -154.0, -146.0, -132.0, -140.0, -196.0, -212.0, -230.0, -226.0, -224.0, -186.0, -212.0, -232.0, -282.0, -300.0, -286.0, -330.0, -348.0, -326.0, -366.0, -334.0, -388.0, -402.0, -422.0, -460.0, -486.0, -456.0, -498.0, -458.0], "WindowWidth": [6118.0, 6280.0, 6214.0, 6082.0, 5044.0, 5036.0, 5036.0, 4986.0, 4978.0, 4910.0, 4866.0, 4804.0, 4772.0, 4736.0, 4696.0, 4678.0, 4634.0, 4584.0, 4534.0, 4490.0, 4436.0, 4384.0, 4312.0, 4292.0, 4178.0, 4158.0, 4064.0, 4032.0, 4030.0, 3988.0, 4032.0, 4012.0, 4042.0, 4120.0, 4146.0, 4144.0, 4176.0, 4220.0, 4232.0, 4234.0, 4262.0, 4284.0, 4274.0, 4276.0, 4266.0, 4296.0, 4278.0, 4276.0, 4316.0, 4336.0, 4334.0, 4308.0, 4326.0, 4350.0, 4342.0, 4410.0, 4424.0, 4488.0, 4562.0, 4614.0, 4672.0, 4774.0, 4818.0, 4800.0, 4926.0, 4928.0, 4956.0, 4968.0]}}}