{
    "AcquisitionMatrixPE": 96,
    "AcquisitionNumber": 1,
    "AcquisitionTime": "07:20:59.857500",
    "BandwidthPerPixelPhaseEncode": 33.602,
    "BaseResolution": 96,
    "BodyPartExamined": "BRAIN",
    "ConsistencyInfo": "N4_VD11D_LATEST_20110129",
    "ConversionSoftware": "dcm2niix",
    "ConversionSoftwareVersion": "v1.0.20210317",
    "DerivedVendorReportedEchoSpacing": 0.000620003,
    "DeviceSerialNumber": "45239",
    "DwellTime": 2.6e-06,
    "EchoTime": 0.03,
    "EchoTrainLength": 48,
    "EffectiveEchoSpacing": 0.000310001,
    "FlipAngle": 63,
    "ImageComments": "Unaliased MB4/PE3",
    "ImageOrientationPatientDICOM": [
        0.998221,
        0.0247808,
        0.0542199,
        0.00605266,
        0.86268,
        -0.505714
    ],
    "ImageType": [
        "ORIGINAL",
        "PRIMARY",
        "M",
        "ND",
        "NORM",
        "MOSAIC"
    ],
    "ImagingFrequency": 123.193,
    "InPlanePhaseEncodingDirectionDICOM": "COL",
    "InstitutionAddress": "E 24th St. 100,Austin,Southmiddle,US,78712",
    "InstitutionName": "Univ of Texas at Austin",
    "InstitutionalDepartmentName": "IRC",
    "MRAcquisitionType": "2D",
    "MagneticFieldStrength": 3,
    "Manufacturer": "Siemens",
    "ManufacturersModelName": "Skyra",
    "Modality": "MR",
    "MultibandAccelerationFactor": 4,
    "ParallelReductionFactorInPlane": 2,
    "PartialFourier": 1,
    "PatientPosition": "HFS",
    "PercentPhaseFOV": 100,
    "PercentSampling": 100,
    "PhaseEncodingDirection": "j-",
    "PhaseEncodingSteps": 96,
    "PhaseResolution": 1,
    "PixelBandwidth": 2005,
    "ProcedureStepDescription": "Poldrack2^self-scanning",
    "ProtocolName": "Resting State fMRI MBEPI_matrix96_BW2004",
    "PulseSequenceDetails": "%CustomerSeq%\\cmrr_mbep2d_bold",
    "ReceiveCoilActiveElements": "HEA;HEP",
    "ReceiveCoilName": "Head_32",
    "ReconMatrixPE": 96,
    "RefLinesPE": 94,
    "RepetitionTime": 1.16,
    "SAR": 0.107417,
    "ScanOptions": "FS",
    "ScanningSequence": "EP",
    "SequenceName": "epfid2d1_96",
    "SequenceVariant": "SK",
    "SeriesDescription": "Resting State fMRI MBEPI_matrix96_BW2004",
    "SeriesNumber": 9,
    "ShimSetting": [
        -2791,
        8028,
        -15436,
        177,
        -270,
        69,
        221,
        -86
    ],
    "SliceThickness": 2,
    "SliceTiming": [
        0,
        0.615,
        0.07,
        0.6825,
        0.1375,
        0.7525,
        0.205,
        0.82,
        0.275,
        0.8875,
        0.3425,
        0.955,
        0.41,
        1.025,
        0.4775,
        1.0925,
        0.5475,
        0,
        0.615,
        0.07,
        0.6825,
        0.1375,
        0.7525,
        0.205,
        0.82,
        0.275,
        0.8875,
        0.3425,
        0.955,
        0.41,
        1.025,
        0.4775,
        1.0925,
        0.5475,
        0,
        0.615,
        0.07,
        0.6825,
        0.1375,
        0.7525,
        0.205,
        0.82,
        0.275,
        0.8875,
        0.3425,
        0.955,
        0.41,
        1.025,
        0.4775,
        1.0925,
        0.5475,
        0,
        0.615,
        0.07,
        0.6825,
        0.1375,
        0.7525,
        0.205,
        0.82,
        0.275,
        0.8875,
        0.3425,
        0.955,
        0.41,
        1.025,
        0.4775,
        1.0925,
        0.5475
    ],
    "SoftwareVersions": "syngo MR D11",
    "SpacingBetweenSlices": 2.4,
    "StationName": "AWP45239",
    "TaskName": "Resting fmri",
    "TotalReadoutTime": 0.0294501,
    "TxRefAmp": 343.523,
    "WipMemBlock": "83d9fa13-0a84-4468-98b8-ac5e9bf79a50||Sequence: VD11D r154; May 23 2012 22:27:19 by eja",
    "dcmmeta_affine": [
        [
            -2.3915722370147705,
            0.014501165598630905,
            0.14233531057834625,
            111.4831314086914
        ],
        [
            -0.05937059968709946,
            2.0668368339538574,
            -1.212343454360962,
            -66.31458282470703
        ],
        [
            0.12990178167819977,
            1.2116072177886963,
            2.0663890838623047,
            -90.14496612548828
        ],
        [
            0.0,
            0.0,
            0.0,
            1.0
        ]
    ],
    "dcmmeta_reorient_transform": [
        [
            0.0,
            -1.0,
            0.0,
            95.0
        ],
        [
            1.0,
            0.0,
            0.0,
            0.0
        ],
        [
            0.0,
            0.0,
            1.0,
            0.0
        ],
        [
            0.0,
            0.0,
            0.0,
            1.0
        ]
    ],
    "dcmmeta_shape": [
        96,
        96,
        68,
        518
    ],
    "dcmmeta_slice_dim": 2,
    "dcmmeta_version": 0.6,
    "global": {
        "const": {
            "AcquisitionMatrix": [
                96,
                0,
                0,
                96
            ],
            "AngioFlag": "N",
            "BitsAllocated": 16,
            "BitsStored": 16,
            "BodyPartExamined": "BRAIN",
            "Columns": 864,
            "EchoNumbers": 1,
            "EchoTime": 30.0,
            "EchoTrainLength": 48,
            "FlipAngle": 63.0,
            "HighBit": 15,
            "ImageOrientationPatient": [
                0.9982214777111,
                0.02478077309096,
                0.05421987385896,
                0.006052660516,
                0.86267976676696,
                -0.5057143317245
            ],
            "ImagePositionPatient": [
                -1036.7929178892,
                -946.49858751292,
                440.33260463697
            ],
            "ImageType": [
                "ORIGINAL",
                "PRIMARY",
                "M",
                "ND",
                "NORM",
                "MOSAIC"
            ],
            "ImagedNucleus": "1H",
            "ImagingFrequency": 123.193266,
            "InPlanePhaseEncodingDirection": "COL",
            "MRAcquisitionType": "2D",
            "MagneticFieldStrength": 3.0,
            "Manufacturer": "SIEMENS",
            "ManufacturerModelName": "Skyra",
            "Modality": "MR",
            "NumberOfAverages": 1.0,
            "NumberOfPhaseEncodingSteps": 96,
            "PercentPhaseFieldOfView": 100.0,
            "PercentSampling": 100.0,
            "PerformedProcedureStepStartTime": "070404.562000",
            "PhotometricInterpretation": "MONOCHROME2",
            "PixelBandwidth": 2005.0,
            "PixelRepresentation": 0,
            "PixelSpacing": [
                2.3958332538605,
                2.3958332538605
            ],
            "ProtocolName": "Resting State fMRI MBEPI_matrix96_BW2004",
            "RepetitionTime": 1160.0,
            "Rows": 864,
            "SAR": 0.10741670083339,
            "SamplesPerPixel": 1,
            "ScanOptions": "FS",
            "ScanningSequence": "EP",
            "SequenceName": "epfid2d1_96",
            "SequenceVariant": "SK",
            "SeriesDescription": "Resting State fMRI MBEPI_matrix96_BW2004",
            "SeriesNumber": 9,
            "SeriesTime": "072146.781000",
            "SliceLocation": -37.504395436587,
            "SliceThickness": 2.0,
            "SmallestImagePixelValue": 0,
            "SoftwareVersions": "syngo MR D11",
            "SpacingBetweenSlices": 2.4000000147438,
            "SpecificCharacterSet": "ISO_IR 100",
            "StudyID": "2",
            "StudyTime": "070404.531000",
            "TransmitCoilName": "Body",
            "VariableFlipAngleFlag": "N",
            "WindowCenterWidthExplanation": "Algo1",
            "dBdt": 0.0
        },
        "slices": {}
    },
    "time": {
        "samples": {
            "AcquisitionNumber": [
                1,
                2,
                3,
                4,
                5,
                6,
                7,
                8,
                9,
                10,
                11,
                12,
                13,
                14,
                15,
                16,
                17,
                18,
                19,
                20,
                21,
                22,
                23,
                24,
                25,
                26,
                27,
                28,
                29,
                30,
                31,
                32,
                33,
                34,
                35,
                36,
                37,
                38,
                39,
                40,
                41,
                42,
                43,
                44,
                45,
                46,
                47,
                48,
                49,
                50,
                51,
                52,
                53,
                54,
                55,
                56,
                57,
                58,
                59,
                60,
                61,
                62,
                63,
                64,
                65,
                66,
                67,
                68,
                69,
                70,
                71,
                72,
                73,
                74,
                75,
                76,
                77,
                78,
                79,
                80,
                81,
                82,
                83,
                84,
                85,
                86,
                87,
                88,
                89,
                90,
                91,
                92,
                93,
                94,
                95,
                96,
                97,
                98,
                99,
                100,
                101,
                102,
                103,
                104,
                105,
                106,
                107,
                108,
                109,
                110,
                111,
                112,
                113,
                114,
                115,
                116,
                117,
                118,
                119,
                120,
                121,
                122,
                123,
                124,
                125,
                126,
                127,
                128,
                129,
                130,
                131,
                132,
                133,
                134,
                135,
                136,
                137,
                138,
                139,
                140,
                141,
                142,
                143,
                144,
                145,
                146,
                147,
                148,
                149,
                150,
                151,
                152,
                153,
                154,
                155,
                156,
                157,
                158,
                159,
                160,
                161,
                162,
                163,
                164,
                165,
                166,
                167,
                168,
                169,
                170,
                171,
                172,
                173,
                174,
                175,
                176,
                177,
                178,
                179,
                180,
                181,
                182,
                183,
                184,
                185,
                186,
                187,
                188,
                189,
                190,
                191,
                192,
                193,
                194,
                195,
                196,
                197,
                198,
                199,
                200,
                201,
                202,
                203,
                204,
                205,
                206,
                207,
                208,
                209,
                210,
                211,
                212,
                213,
                214,
                215,
                216,
                217,
                218,
                219,
                220,
                221,
                222,
                223,
                224,
                225,
                226,
                227,
                228,
                229,
                230,
                231,
                232,
                233,
                234,
                235,
                236,
                237,
                238,
                239,
                240,
                241,
                242,
                243,
                244,
                245,
                246,
                247,
                248,
                249,
                250,
                251,
                252,
                253,
                254,
                255,
                256,
                257,
                258,
                259,
                260,
                261,
                262,
                263,
                264,
                265,
                266,
                267,
                268,
                269,
                270,
                271,
                272,
                273,
                274,
                275,
                276,
                277,
                278,
                279,
                280,
                281,
                282,
                283,
                284,
                285,
                286,
                287,
                288,
                289,
                290,
                291,
                292,
                293,
                294,
                295,
                296,
                297,
                298,
                299,
                300,
                301,
                302,
                303,
                304,
                305,
                306,
                307,
                308,
                309,
                310,
                311,
                312,
                313,
                314,
                315,
                316,
                317,
                318,
                319,
                320,
                321,
                322,
                323,
                324,
                325,
                326,
                327,
                328,
                329,
                330,
                331,
                332,
                333,
                334,
                335,
                336,
                337,
                338,
                339,
                340,
                341,
                342,
                343,
                344,
                345,
                346,
                347,
                348,
                349,
                350,
                351,
                352,
                353,
                354,
                355,
                356,
                357,
                358,
                359,
                360,
                361,
                362,
                363,
                364,
                365,
                366,
                367,
                368,
                369,
                370,
                371,
                372,
                373,
                374,
                375,
                376,
                377,
                378,
                379,
                380,
                381,
                382,
                383,
                384,
                385,
                386,
                387,
                388,
                389,
                390,
                391,
                392,
                393,
                394,
                395,
                396,
                397,
                398,
                399,
                400,
                401,
                402,
                403,
                404,
                405,
                406,
                407,
                408,
                409,
                410,
                411,
                412,
                413,
                414,
                415,
                416,
                417,
                418,
                419,
                420,
                421,
                422,
                423,
                424,
                425,
                426,
                427,
                428,
                429,
                430,
                431,
                432,
                433,
                434,
                435,
                436,
                437,
                438,
                439,
                440,
                441,
                442,
                443,
                444,
                445,
                446,
                447,
                448,
                449,
                450,
                451,
                452,
                453,
                454,
                455,
                456,
                457,
                458,
                459,
                460,
                461,
                462,
                463,
                464,
                465,
                466,
                467,
                468,
                469,
                470,
                471,
                472,
                473,
                474,
                475,
                476,
                477,
                478,
                479,
                480,
                481,
                482,
                483,
                484,
                485,
                486,
                487,
                488,
                489,
                490,
                491,
                492,
                493,
                494,
                495,
                496,
                497,
                498,
                499,
                500,
                501,
                502,
                503,
                504,
                505,
                506,
                507,
                508,
                509,
                510,
                511,
                512,
                513,
                514,
                515,
                516,
                517,
                518
            ],
            "AcquisitionTime": [
                "072059.857500",
                "072128.855000",
                "072130.015000",
                "072131.175000",
                "072132.335000",
                "072133.495000",
                "072134.655000",
                "072135.815000",
                "072136.975000",
                "072138.135000",
                "072139.295000",
                "072140.455000",
                "072141.615000",
                "072142.775000",
                "072143.935000",
                "072145.095000",
                "072146.255000",
                "072147.415000",
                "072148.575000",
                "072149.735000",
                "072150.895000",
                "072152.055000",
                "072153.215000",
                "072154.375000",
                "072155.535000",
                "072156.695000",
                "072157.855000",
                "072159.015000",
                "072200.175000",
                "072201.335000",
                "072202.495000",
                "072203.655000",
                "072204.815000",
                "072205.975000",
                "072207.135000",
                "072208.295000",
                "072209.455000",
                "072210.615000",
                "072211.775000",
                "072212.935000",
                "072214.095000",
                "072215.255000",
                "072216.415000",
                "072217.575000",
                "072218.735000",
                "072219.895000",
                "072221.055000",
                "072222.215000",
                "072223.375000",
                "072224.535000",
                "072225.695000",
                "072226.855000",
                "072228.015000",
                "072229.175000",
                "072230.335000",
                "072231.495000",
                "072232.655000",
                "072233.815000",
                "072234.975000",
                "072236.135000",
                "072237.295000",
                "072238.455000",
                "072239.615000",
                "072240.775000",
                "072241.935000",
                "072243.095000",
                "072244.255000",
                "072245.415000",
                "072246.575000",
                "072247.735000",
                "072248.895000",
                "072250.055000",
                "072251.215000",
                "072252.375000",
                "072253.535000",
                "072254.695000",
                "072255.855000",
                "072257.015000",
                "072258.175000",
                "072259.335000",
                "072300.495000",
                "072301.655000",
                "072302.815000",
                "072303.975000",
                "072305.135000",
                "072306.295000",
                "072307.455000",
                "072308.615000",
                "072309.775000",
                "072310.935000",
                "072312.095000",
                "072313.255000",
                "072314.415000",
                "072315.575000",
                "072316.735000",
                "072317.895000",
                "072319.055000",
                "072320.215000",
                "072321.375000",
                "072322.535000",
                "072323.695000",
                "072324.855000",
                "072326.015000",
                "072327.175000",
                "072328.335000",
                "072329.495000",
                "072330.655000",
                "072331.815000",
                "072332.975000",
                "072334.135000",
                "072335.295000",
                "072336.455000",
                "072337.615000",
                "072338.775000",
                "072339.935000",
                "072341.095000",
                "072342.255000",
                "072343.415000",
                "072344.575000",
                "072345.735000",
                "072346.895000",
                "072348.055000",
                "072349.215000",
                "072350.375000",
                "072351.535000",
                "072352.695000",
                "072353.855000",
                "072355.015000",
                "072356.175000",
                "072357.335000",
                "072358.495000",
                "072359.655000",
                "072400.815000",
                "072401.975000",
                "072403.135000",
                "072404.295000",
                "072405.455000",
                "072406.615000",
                "072407.775000",
                "072408.935000",
                "072410.095000",
                "072411.255000",
                "072412.415000",
                "072413.575000",
                "072414.735000",
                "072415.895000",
                "072417.055000",
                "072418.215000",
                "072419.375000",
                "072420.535000",
                "072421.695000",
                "072422.855000",
                "072424.015000",
                "072425.175000",
                "072426.335000",
                "072427.495000",
                "072428.655000",
                "072429.815000",
                "072430.975000",
                "072432.135000",
                "072433.295000",
                "072434.455000",
                "072435.615000",
                "072436.775000",
                "072437.935000",
                "072439.095000",
                "072440.255000",
                "072441.415000",
                "072442.575000",
                "072443.735000",
                "072444.895000",
                "072446.055000",
                "072447.215000",
                "072448.375000",
                "072449.535000",
                "072450.695000",
                "072451.855000",
                "072453.015000",
                "072454.175000",
                "072455.335000",
                "072456.495000",
                "072457.655000",
                "072458.815000",
                "072459.975000",
                "072501.135000",
                "072502.295000",
                "072503.455000",
                "072504.615000",
                "072505.775000",
                "072506.935000",
                "072508.095000",
                "072509.255000",
                "072510.415000",
                "072511.575000",
                "072512.735000",
                "072513.895000",
                "072515.055000",
                "072516.215000",
                "072517.375000",
                "072518.535000",
                "072519.695000",
                "072520.855000",
                "072522.015000",
                "072523.175000",
                "072524.335000",
                "072525.495000",
                "072526.655000",
                "072527.815000",
                "072528.975000",
                "072530.135000",
                "072531.295000",
                "072532.455000",
                "072533.615000",
                "072534.775000",
                "072535.935000",
                "072537.095000",
                "072538.255000",
                "072539.415000",
                "072540.575000",
                "072541.735000",
                "072542.895000",
                "072544.055000",
                "072545.215000",
                "072546.375000",
                "072547.535000",
                "072548.695000",
                "072549.855000",
                "072551.015000",
                "072552.175000",
                "072553.335000",
                "072554.495000",
                "072555.655000",
                "072556.815000",
                "072557.975000",
                "072559.135000",
                "072600.295000",
                "072601.455000",
                "072602.615000",
                "072603.775000",
                "072604.935000",
                "072606.095000",
                "072607.255000",
                "072608.415000",
                "072609.575000",
                "072610.735000",
                "072611.895000",
                "072613.055000",
                "072614.215000",
                "072615.375000",
                "072616.535000",
                "072617.695000",
                "072618.855000",
                "072620.015000",
                "072621.175000",
                "072622.335000",
                "072623.495000",
                "072624.655000",
                "072625.815000",
                "072626.975000",
                "072628.135000",
                "072629.295000",
                "072630.455000",
                "072631.615000",
                "072632.775000",
                "072633.935000",
                "072635.095000",
                "072636.255000",
                "072637.415000",
                "072638.575000",
                "072639.735000",
                "072640.895000",
                "072642.055000",
                "072643.215000",
                "072644.375000",
                "072645.535000",
                "072646.695000",
                "072647.855000",
                "072649.015000",
                "072650.175000",
                "072651.335000",
                "072652.495000",
                "072653.655000",
                "072654.815000",
                "072655.975000",
                "072657.135000",
                "072658.295000",
                "072659.455000",
                "072700.615000",
                "072701.775000",
                "072702.935000",
                "072704.095000",
                "072705.255000",
                "072706.415000",
                "072707.575000",
                "072708.735000",
                "072709.895000",
                "072711.055000",
                "072712.215000",
                "072713.375000",
                "072714.535000",
                "072715.695000",
                "072716.855000",
                "072718.015000",
                "072719.175000",
                "072720.335000",
                "072721.495000",
                "072722.655000",
                "072723.815000",
                "072724.975000",
                "072726.135000",
                "072727.295000",
                "072728.455000",
                "072729.615000",
                "072730.775000",
                "072731.935000",
                "072733.095000",
                "072734.255000",
                "072735.415000",
                "072736.575000",
                "072737.735000",
                "072738.895000",
                "072740.055000",
                "072741.215000",
                "072742.375000",
                "072743.535000",
                "072744.695000",
                "072745.855000",
                "072747.015000",
                "072748.175000",
                "072749.335000",
                "072750.495000",
                "072751.655000",
                "072752.815000",
                "072753.975000",
                "072755.135000",
                "072756.295000",
                "072757.455000",
                "072758.615000",
                "072759.775000",
                "072800.935000",
                "072802.095000",
                "072803.255000",
                "072804.415000",
                "072805.575000",
                "072806.735000",
