{
    "AcquisitionMatrixPE": 96,
    "AcquisitionNumber": 1,
    "AcquisitionTime": "07:35:16.112500",
    "BandwidthPerPixelPhaseEncode": 33.602,
    "BaseResolution": 96,
    "BodyPartExamined": "BRAIN",
    "ConsistencyInfo": "N4_VD11D_LATEST_20110129",
    "ConversionSoftware": "dcm2niix",
    "ConversionSoftwareVersion": "v1.0.20210317",
    "DerivedVendorReportedEchoSpacing": 0.000620003,
    "DeviceSerialNumber": "45239",
    "DwellTime": 2.6e-06,
    "EchoTime": 0.03,
    "EchoTrainLength": 48,
    "EffectiveEchoSpacing": 0.000310001,
    "FlipAngle": 63,
    "ImageComments": "Unaliased MB4/PE3",
    "ImageOrientationPatientDICOM": [
        0.999819,
        -0.0168101,
        0.00886297,
        0.0190035,
        0.884421,
        -0.466302
    ],
    "ImageType": [
        "ORIGINAL",
        "PRIMARY",
        "M",
        "ND",
        "NORM",
        "MOSAIC"
    ],
    "ImagingFrequency": 123.193,
    "InPlanePhaseEncodingDirectionDICOM": "COL",
    "InstitutionAddress": "E 24th St. 100,Austin,Southmiddle,US,78712",
    "InstitutionName": "Univ of Texas at Austin",
    "InstitutionalDepartmentName": "IRC",
    "MRAcquisitionType": "2D",
    "MagneticFieldStrength": 3,
    "Manufacturer": "Siemens",
    "ManufacturersModelName": "Skyra",
    "Modality": "MR",
    "MultibandAccelerationFactor": 4,
    "ParallelReductionFactorInPlane": 2,
    "PartialFourier": 1,
    "PatientPosition": "HFS",
    "PercentPhaseFOV": 100,
    "PercentSampling": 100,
    "PhaseEncodingDirection": "j-",
    "PhaseEncodingSteps": 96,
    "PhaseResolution": 1,
    "PixelBandwidth": 2005,
    "ProcedureStepDescription": "Poldrack2^self-scanning",
    "ProtocolName": "Resting State fMRI MBEPI_matrix96_BW2004",
    "PulseSequenceDetails": "%CustomerSeq%\\cmrr_mbep2d_bold",
    "ReceiveCoilActiveElements": "HEA;HEP",
    "ReceiveCoilName": "Head_32",
    "ReconMatrixPE": 96,
    "RefLinesPE": 94,
    "RepetitionTime": 1.16,
    "SAR": 0.104078,
    "ScanOptions": "FS",
    "ScanningSequence": "EP",
    "SequenceName": "epfid2d1_96",
    "SequenceVariant": "SK",
    "SeriesDescription": "Resting State fMRI MBEPI_matrix96_BW2004",
    "SeriesNumber": 8,
    "ShimSetting": [
        -2782,
        8028,
        -15399,
        102,
        -193,
        72,
        291,
        -40
    ],
    "SliceThickness": 2,
    "SliceTiming": [
        0,
        0.4975,
        0.9975,
        0.355,
        0.855,
        0.2125,
        0.7125,
        0.07,
        0.57,
        1.0675,
        0.4275,
        0.925,
        0.285,
        0.7825,
        0.1425,
        0.64,
        0,
        0.4975,
        0.9975,
        0.355,
        0.855,
        0.2125,
        0.7125,
        0.07,
        0.57,
        1.0675,
        0.4275,
        0.925,
        0.285,
        0.7825,
        0.1425,
        0.64,
        0,
        0.4975,
        0.9975,
        0.355,
        0.855,
        0.2125,
        0.7125,
        0.07,
        0.57,
        1.0675,
        0.4275,
        0.925,
        0.285,
        0.7825,
        0.1425,
        0.64,
        0,
        0.4975,
        0.9975,
        0.355,
        0.855,
        0.2125,
        0.7125,
        0.07,
        0.57,
        1.0675,
        0.4275,
        0.925,
        0.285,
        0.7825,
        0.1425,
        0.64
    ],
    "SoftwareVersions": "syngo MR D11",
    "SpacingBetweenSlices": 2.4,
    "StationName": "AWP45239",
    "TaskName": "Resting fmri",
    "TotalReadoutTime": 0.0294501,
    "TxRefAmp": 343.796,
    "WipMemBlock": "876ef57f-254d-4e47-969a-502fe80a293a||Sequence: VD11D r206; Feb 13 2013 18:52:04 by eja",
    "dcmmeta_affine": [
        [
            -2.3954005241394043,
            0.045529209077358246,
            -2.7975012528713705e-08,
            117.01507568359375
        ],
        [
            0.04027428850531578,
            2.1189258098602295,
            -1.1193279027938843,
            -87.70051574707031
        ],
        [
            0.021234190091490746,
            1.1171828508377075,
            2.1229944229125977,
            -75.44410705566406
        ],
        [
            0.0,
            0.0,
            0.0,
            1.0
        ]
    ],
    "dcmmeta_reorient_transform": [
        [
            0.0,
            -1.0,
            0.0,
            95.0
        ],
        [
            1.0,
            0.0,
            0.0,
            0.0
        ],
        [
            0.0,
            0.0,
            1.0,
            0.0
        ],
        [
            0.0,
            0.0,
            0.0,
            1.0
        ]
    ],
    "dcmmeta_shape": [
        96,
        96,
        64,
        518
    ],
    "dcmmeta_slice_dim": 2,
    "dcmmeta_version": 0.6,
    "global": {
        "const": {
            "AcquisitionMatrix": [
                96,
                0,
                0,
                96
            ],
            "AngioFlag": "N",
            "BitsAllocated": 16,
            "BitsStored": 16,
            "BodyPartExamined": "BRAIN",
            "Columns": 768,
            "EchoNumbers": 1,
            "EchoTime": 30.0,
            "EchoTrainLength": 48,
            "FlipAngle": 63.0,
            "HighBit": 15,
            "ImageOrientationPatient": [
                0.99981941724235,
                -0.0168101376594,
                0.008862966605,
                0.01900349718256,
                0.88442124313048,
                -0.4663024038051
            ],
            "ImagePositionPatient": [
                -941.49276610222,
                -812.02435604524,
                398.92699188167
            ],
            "ImageType": [
                "ORIGINAL",
                "PRIMARY",
                "M",
                "ND",
                "NORM",
                "MOSAIC"
            ],
            "ImagedNucleus": "1H",
            "ImagingFrequency": 123.1932,
            "InPlanePhaseEncodingDirection": "COL",
            "MRAcquisitionType": "2D",
            "MagneticFieldStrength": 3.0,
            "Manufacturer": "SIEMENS",
            "ManufacturerModelName": "Skyra",
            "Modality": "MR",
            "NumberOfAverages": 1.0,
            "NumberOfPhaseEncodingSteps": 96,
            "PercentPhaseFieldOfView": 100.0,
            "PercentSampling": 100.0,
            "PerformedProcedureStepStartTime": "071353.359000",
            "PhotometricInterpretation": "MONOCHROME2",
            "PixelBandwidth": 2005.0,
            "PixelRepresentation": 0,
            "PixelSpacing": [
                2.3958332538605,
                2.3958332538605
            ],
            "ProtocolName": "Resting State fMRI MBEPI_matrix96_BW2004",
            "RepetitionTime": 1160.0,
            "Rows": 768,
            "SAR": 0.10407780711206,
            "SamplesPerPixel": 1,
            "ScanOptions": "FS",
            "ScanningSequence": "EP",
            "SequenceName": "epfid2d1_96",
            "SequenceVariant": "SK",
            "SeriesDescription": "Resting State fMRI MBEPI_matrix96_BW2004",
            "SeriesNumber": 8,
            "SeriesTime": "073555.359000",
            "SliceLocation": -25.834079055058,
            "SliceThickness": 2.0,
            "SmallestImagePixelValue": 0,
            "SoftwareVersions": "syngo MR D11",
            "SpacingBetweenSlices": 2.4000000138939,
            "SpecificCharacterSet": "ISO_IR 100",
            "StudyID": "1",
            "StudyTime": "071353.296000",
            "TransmitCoilName": "Body",
            "VariableFlipAngleFlag": "N",
            "WindowCenterWidthExplanation": "Algo1",
            "dBdt": 0.0
        },
        "slices": {}
    },
    "time": {
        "samples": {
            "AcquisitionNumber": [
                1,
                2,
                3,
                4,
                5,
                6,
                7,
                8,
                9,
                10,
                11,
                12,
                13,
                14,
                15,
                16,
                17,
                18,
                19,
                20,
                21,
                22,
                23,
                24,
                25,
                26,
                27,
                28,
                29,
                30,
                31,
                32,
                33,
                34,
                35,
                36,
                37,
                38,
                39,
                40,
                41,
                42,
                43,
                44,
                45,
                46,
                47,
                48,
                49,
                50,
                51,
                52,
                53,
                54,
                55,
                56,
                57,
                58,
                59,
                60,
                61,
                62,
                63,
                64,
                65,
                66,
                67,
                68,
                69,
                70,
                71,
                72,
                73,
                74,
                75,
                76,
                77,
                78,
                79,
                80,
                81,
                82,
                83,
                84,
                85,
                86,
                87,
                88,
                89,
                90,
                91,
                92,
                93,
                94,
                95,
                96,
                97,
                98,
                99,
                100,
                101,
                102,
                103,
                104,
                105,
                106,
                107,
                108,
                109,
                110,
                111,
                112,
                113,
                114,
                115,
                116,
                117,
                118,
                119,
                120,
                121,
                122,
                123,
                124,
                125,
                126,
                127,
                128,
                129,
                130,
                131,
                132,
                133,
                134,
                135,
                136,
                137,
                138,
                139,
                140,
                141,
                142,
                143,
                144,
                145,
                146,
                147,
                148,
                149,
                150,
                151,
                152,
                153,
                154,
                155,
                156,
                157,
                158,
                159,
                160,
                161,
                162,
                163,
                164,
                165,
                166,
                167,
                168,
                169,
                170,
                171,
                172,
                173,
                174,
                175,
                176,
                177,
                178,
                179,
                180,
                181,
                182,
                183,
                184,
                185,
                186,
                187,
                188,
                189,
                190,
                191,
                192,
                193,
                194,
                195,
                196,
                197,
                198,
                199,
                200,
                201,
                202,
                203,
                204,
                205,
                206,
                207,
                208,
                209,
                210,
                211,
                212,
                213,
                214,
                215,
                216,
                217,
                218,
                219,
                220,
                221,
                222,
                223,
                224,
                225,
                226,
                227,
                228,
                229,
                230,
                231,
                232,
                233,
                234,
                235,
                236,
                237,
                238,
                239,
                240,
                241,
                242,
                243,
                244,
                245,
                246,
                247,
                248,
                249,
                250,
                251,
                252,
                253,
                254,
                255,
                256,
                257,
                258,
                259,
                260,
                261,
                262,
                263,
                264,
                265,
                266,
                267,
                268,
                269,
                270,
                271,
                272,
                273,
                274,
                275,
                276,
                277,
                278,
                279,
                280,
                281,
                282,
                283,
                284,
                285,
                286,
                287,
                288,
                289,
                290,
                291,
                292,
                293,
                294,
                295,
                296,
                297,
                298,
                299,
                300,
                301,
                302,
                303,
                304,
                305,
                306,
                307,
                308,
                309,
                310,
                311,
                312,
                313,
                314,
                315,
                316,
                317,
                318,
                319,
                320,
                321,
                322,
                323,
                324,
                325,
                326,
                327,
                328,
                329,
                330,
                331,
                332,
                333,
                334,
                335,
                336,
                337,
                338,
                339,
                340,
                341,
                342,
                343,
                344,
                345,
                346,
                347,
                348,
                349,
                350,
                351,
                352,
                353,
                354,
                355,
                356,
                357,
                358,
                359,
                360,
                361,
                362,
                363,
                364,
                365,
                366,
                367,
                368,
                369,
                370,
                371,
                372,
                373,
                374,
                375,
                376,
                377,
                378,
                379,
                380,
                381,
                382,
                383,
                384,
                385,
                386,
                387,
                388,
                389,
                390,
                391,
                392,
                393,
                394,
                395,
                396,
                397,
                398,
                399,
                400,
                401,
                402,
                403,
                404,
                405,
                406,
                407,
                408,
                409,
                410,
                411,
                412,
                413,
                414,
                415,
                416,
                417,
                418,
                419,
                420,
                421,
                422,
                423,
                424,
                425,
                426,
                427,
                428,
                429,
                430,
                431,
                432,
                433,
                434,
                435,
                436,
                437,
                438,
                439,
                440,
                441,
                442,
                443,
                444,
                445,
                446,
                447,
                448,
                449,
                450,
                451,
                452,
                453,
                454,
                455,
                456,
                457,
                458,
                459,
                460,
                461,
                462,
                463,
                464,
                465,
                466,
                467,
                468,
                469,
                470,
                471,
                472,
                473,
                474,
                475,
                476,
                477,
                478,
                479,
                480,
                481,
                482,
                483,
                484,
                485,
                486,
                487,
                488,
                489,
                490,
                491,
                492,
                493,
                494,
                495,
                496,
                497,
                498,
                499,
                500,
                501,
                502,
                503,
                504,
                505,
                506,
                507,
                508,
                509,
                510,
                511,
                512,
                513,
                514,
                515,
                516,
                517,
                518
            ],
            "AcquisitionTime": [
                "073516.112500",
                "073545.112500",
                "073546.272500",
                "073547.432500",
                "073548.592500",
                "073549.752500",
                "073550.912500",
                "073552.072500",
                "073553.232500",
                "073554.392500",
                "073555.552500",
                "073556.712500",
                "073557.872500",
                "073559.032500",
                "073600.192500",
                "073601.352500",
                "073602.512500",
                "073603.672500",
                "073604.832500",
                "073605.992500",
                "073607.152500",
                "073608.312500",
                "073609.472500",
                "073610.632500",
                "073611.792500",
                "073612.952500",
                "073614.112500",
                "073615.272500",
                "073616.432500",
                "073617.592500",
                "073618.752500",
                "073619.912500",
                "073621.072500",
                "073622.232500",
                "073623.392500",
                "073624.552500",
                "073625.712500",
                "073626.872500",
                "073628.032500",
                "073629.192500",
                "073630.352500",
                "073631.512500",
                "073632.672500",
                "073633.832500",
                "073634.992500",
                "073636.152500",
                "073637.312500",
                "073638.472500",
                "073639.632500",
                "073640.792500",
                "073641.952500",
                "073643.112500",
                "073644.272500",
                "073645.432500",
                "073646.592500",
                "073647.752500",
                "073648.912500",
                "073650.072500",
                "073651.232500",
                "073652.392500",
                "073653.552500",
                "073654.712500",
                "073655.872500",
                "073657.032500",
                "073658.192500",
                "073659.352500",
                "073700.512500",
                "073701.672500",
                "073702.832500",
                "073703.992500",
                "073705.152500",
                "073706.312500",
                "073707.472500",
                "073708.632500",
                "073709.792500",
                "073710.952500",
                "073712.112500",
                "073713.272500",
                "073714.432500",
                "073715.592500",
                "073716.752500",
                "073717.912500",
                "073719.072500",
                "073720.232500",
                "073721.392500",
                "073722.552500",
                "073723.712500",
                "073724.872500",
                "073726.032500",
                "073727.192500",
                "073728.352500",
                "073729.512500",
                "073730.672500",
                "073731.832500",
                "073732.992500",
                "073734.152500",
                "073735.312500",
                "073736.472500",
                "073737.632500",
                "073738.792500",
                "073739.952500",
                "073741.112500",
                "073742.272500",
                "073743.432500",
                "073744.592500",
                "073745.752500",
                "073746.912500",
                "073748.072500",
                "073749.232500",
                "073750.392500",
                "073751.552500",
                "073752.712500",
                "073753.872500",
                "073755.032500",
                "073756.192500",
                "073757.352500",
                "073758.512500",
                "073759.672500",
                "073800.832500",
                "073801.992500",
                "073803.152500",
                "073804.312500",
                "073805.472500",
                "073806.632500",
                "073807.792500",
                "073808.952500",
                "073810.112500",
                "073811.272500",
                "073812.432500",
                "073813.592500",
                "073814.752500",
                "073815.912500",
                "073817.072500",
                "073818.232500",
                "073819.392500",
                "073820.552500",
                "073821.712500",
                "073822.872500",
                "073824.032500",
                "073825.192500",
                "073826.352500",
                "073827.512500",
                "073828.672500",
                "073829.832500",
                "073830.992500",
                "073832.152500",
                "073833.312500",
                "073834.472500",
                "073835.632500",
                "073836.792500",
                "073837.952500",
                "073839.112500",
                "073840.272500",
                "073841.432500",
                "073842.592500",
                "073843.752500",
                "073844.912500",
                "073846.072500",
                "073847.232500",
                "073848.392500",
                "073849.552500",
                "073850.712500",
                "073851.872500",
                "073853.032500",
                "073854.192500",
                "073855.352500",
                "073856.512500",
                "073857.672500",
                "073858.832500",
                "073859.992500",
                "073901.152500",
                "073902.312500",
                "073903.472500",
                "073904.632500",
                "073905.792500",
                "073906.952500",
                "073908.112500",
                "073909.272500",
                "073910.432500",
                "073911.592500",
                "073912.752500",
                "073913.912500",
                "073915.072500",
                "073916.232500",
                "073917.392500",
                "073918.552500",
                "073919.712500",
                "073920.872500",
                "073922.032500",
                "073923.192500",
                "073924.352500",
                "073925.512500",
                "073926.672500",
                "073927.832500",
                "073928.992500",
                "073930.155000",
                "073931.315000",
                "073932.475000",
                "073933.635000",
                "073934.795000",
                "073935.955000",
                "073937.115000",
                "073938.275000",
                "073939.435000",
                "073940.595000",
                "073941.755000",
                "073942.915000",
                "073944.075000",
                "073945.235000",
                "073946.395000",
                "073947.555000",
                "073948.715000",
                "073949.875000",
                "073951.035000",
                "073952.195000",
                "073953.355000",
                "073954.515000",
                "073955.675000",
                "073956.835000",
                "073957.995000",
                "073959.155000",
                "074000.315000",
                "074001.475000",
                "074002.635000",
                "074003.795000",
                "074004.955000",
                "074006.115000",
                "074007.275000",
                "074008.435000",
                "074009.595000",
                "074010.755000",
                "074011.915000",
                "074013.075000",
                "074014.235000",
                "074015.395000",
                "074016.555000",
                "074017.715000",
                "074018.875000",
                "074020.035000",
                "074021.195000",
                "074022.355000",
                "074023.515000",
                "074024.675000",
                "074025.835000",
                "074026.995000",
                "074028.155000",
                "074029.315000",
                "074030.475000",
                "074031.635000",
                "074032.795000",
                "074033.955000",
                "074035.115000",
                "074036.275000",
                "074037.435000",
                "074038.595000",
                "074039.755000",
                "074040.915000",
                "074042.075000",
                "074043.235000",
                "074044.395000",
                "074045.555000",
                "074046.715000",
                "074047.875000",
                "074049.035000",
                "074050.195000",
                "074051.355000",
                "074052.515000",
                "074053.675000",
                "074054.835000",
                "074055.995000",
                "074057.155000",
                "074058.315000",
                "074059.475000",
                "074100.635000",
                "074101.795000",
                "074102.955000",
                "074104.115000",
                "074105.275000",
                "074106.435000",
                "074107.595000",
                "074108.755000",
                "074109.915000",
                "074111.075000",
                "074112.235000",
                "074113.395000",
                "074114.555000",
                "074115.715000",
                "074116.875000",
                "074118.035000",
                "074119.195000",
                "074120.355000",
                "074121.515000",
                "074122.675000",
                "074123.835000",
                "074124.995000",
                "074126.155000",
                "074127.315000",
                "074128.475000",
                "074129.635000",
                "074130.795000",
                "074131.955000",
                "074133.115000",
                "074134.275000",
                "074135.435000",
                "074136.595000",
                "074137.755000",
                "074138.915000",
                "074140.075000",
                "074141.235000",
                "074142.395000",
                "074143.555000",
                "074144.715000",
                "074145.875000",
                "074147.035000",
                "074148.195000",
                "074149.355000",
                "074150.515000",
                "074151.675000",
                "074152.835000",
                "074153.995000",
                "074155.155000",
                "074156.315000",
                "074157.475000",
                "074158.635000",
                "074159.795000",
                "074200.955000",
                "074202.115000",
                "074203.275000",
                "074204.435000",
                "074205.595000",
                "074206.755000",
                "074207.915000",
                "074209.075000",
                "074210.235000",
                "074211.395000",
                "074212.555000",
                "074213.715000",
                "074214.875000",
                "074216.035000",
                "074217.195000",
                "074218.355000",
                "074219.515000",
                "074220.675000",
                "074221.835000",
                "074222.995000",
                "074224.155000",
