{"AcquisitionMatrixPE": 96, "AcquisitionNumber": 1, "AcquisitionTime": "07:57:14.950000", "BandwidthPerPixelPhaseEncode": 33.602, "BaseResolution": 96, "BodyPartExamined": "BRAIN", "ConsistencyInfo": "N4_VD11D_LATEST_20110129", "ConversionSoftware": "dcm2niix", "ConversionSoftwareVersion": "v1.0.20210317", "DerivedVendorReportedEchoSpacing": 0.000620003, "DeviceSerialNumber": "45239", "DwellTime": 2.6e-06, "EchoTime": 0.03, "EchoTrainLength": 48, "EffectiveEchoSpacing": 0.000310001, "FlipAngle": 63, "ImageComments": "Unaliased MB4/PE3", "ImageOrientationPatientDICOM": [0.999262, 0.0195288, 0.0330774, 0.00136803, 0.84248, -0.538726], "ImageType": ["ORIGINAL", "PRIMARY", "M", "ND", "NORM", "MOSAIC"], "ImagingFrequency": 123.193, "InPlanePhaseEncodingDirectionDICOM": "COL", "InstitutionAddress": "E 24th St. 100,Austin,Southmiddle,US,78712", "InstitutionName": "Univ of Texas at Austin", "InstitutionalDepartmentName": "IRC", "MRAcquisitionType": "2D", "MagneticFieldStrength": 3, "Manufacturer": "Siemens", "ManufacturersModelName": "Skyra", "Modality": "MR", "MultibandAccelerationFactor": 4, "ParallelReductionFactorInPlane": 2, "PartialFourier": 1, "PatientPosition": "HFS", "PercentPhaseFOV": 100, "PercentSampling": 100, "PhaseEncodingDirection": "j-", "PhaseEncodingSteps": 96, "PhaseResolution": 1, "PixelBandwidth": 2005, "ProcedureStepDescription": "Poldrack2^self-scanning", "ProtocolName": "Breath_Hold", "PulseSequenceDetails": "%CustomerSeq%\\cmrr_mbep2d_bold", "ReceiveCoilActiveElements": "HEA;HEP", "ReceiveCoilName": "Head_32", "ReconMatrixPE": 96, "RefLinesPE": 94, "RepetitionTime": 1.16, "SAR": 0.103576, "ScanOptions": "FS", "ScanningSequence": "EP", "SequenceName": "epfid2d1_96", "SequenceVariant": "SK", "SeriesDescription": "Breath_Hold", "SeriesNumber": 8, "ShimSetting": [-2774, 8066, -15411, 125, -178, 140, 265, -49], "SliceThickness": 2, "SliceTiming": [0, 0.4975, 0.9975, 0.355, 0.855, 0.2125, 0.7125, 0.07, 0.57, 1.0675, 0.4275, 0.925, 0.285, 0.7825, 0.1425, 0.64, 0, 0.4975, 0.9975, 0.355, 0.855, 0.2125, 0.7125, 0.07, 0.57, 1.0675, 0.4275, 0.925, 0.285, 0.7825, 0.1425, 0.64, 0, 0.4975, 0.9975, 0.355, 0.855, 0.2125, 0.7125, 0.07, 0.57, 1.0675, 0.4275, 0.925, 0.285, 0.7825, 0.1425, 0.64, 0, 0.4975, 0.9975, 0.355, 0.855, 0.2125, 0.7125, 0.07, 0.57, 1.0675, 0.4275, 0.925, 0.285, 0.7825, 0.1425, 0.64], "SoftwareVersions": "syngo MR D11", "SpacingBetweenSlices": 2.4, "StationName": "AWP45239", "TaskName": "Breath holding task", "TotalReadoutTime": 0.0294501, "TxRefAmp": 345.414, "WipMemBlock": "458ad260-bfc1-46f2-bcfd-0c1e4fe71baf||Sequence: VD11D r206; Feb 13 2013 18:52:04 by eja", "dcmmeta_affine": [[-2.3940651416778564, 0.0032775658182799816, 0.09213067591190338, 117.02726745605469], [-0.04678786173462868, 2.0184414386749268, -1.2920968532562256, -68.37876892089844], [0.07924804091453552, 1.290697693824768, 2.020395517349243, -83.47598266601562], [0.0, 0.0, 0.0, 1.0]], "dcmmeta_reorient_transform": [[0.0, -1.0, 0.0, 95.0], [1.0, 0.0, 0.0, 0.0], [0.0, 0.0, 1.0, 0.0], [0.0, 0.0, 0.0, 1.0]], "dcmmeta_shape": [96, 96, 64, 318], "dcmmeta_slice_dim": 2, "dcmmeta_version": 0.6, "global": {"const": {"AcquisitionMatrix": [96, 0, 0, 96], "AngioFlag": "N", "BitsAllocated": 16, "BitsStored": 16, "BodyPartExamined": "BRAIN", "Columns": 768, "EchoNumbers": 1, "EchoTime": 30.0, "EchoTrainLength": 48, "FlipAngle": 63.0, "HighBit": 15, "ImageOrientationPatient": [0.99926198102587, 0.01952884793474, 0.03307744510369, 0.0013680275287, 0.84247991787071, -0.5387260124453], "ImagePositionPatient": [-922.84576857752, -817.29020093906, 446.1873853647], "ImageType": ["ORIGINAL", "PRIMARY", "M", "ND", "NORM", "MOSAIC"], "ImagedNucleus": "1H", "ImagingFrequency": 123.193288, "InPlanePhaseEncodingDirection": "COL", "MRAcquisitionType": "2D", "MagneticFieldStrength": 3.0, "Manufacturer": "SIEMENS", "ManufacturerModelName": "Skyra", "Modality": "MR", "NumberOfAverages": 1.0, "NumberOfPhaseEncodingSteps": 96, "PercentPhaseFieldOfView": 100.0, "PercentSampling": 100.0, "PerformedProcedureStepStartTime": "073446.937000", "PhotometricInterpretation": "MONOCHROME2", "PixelBandwidth": 2005.0, "PixelRepresentation": 0, "PixelSpacing": [2.3958332538605, 2.3958332538605], "ProtocolName": "Breath_Hold", "RepetitionTime": 1160.0, "Rows": 768, "SAR": 0.10357645697167, "SamplesPerPixel": 1, "ScanOptions": "FS", "ScanningSequence": "EP", "SequenceName": "epfid2d1_96", "SequenceVariant": "SK", "SeriesDescription": "Breath_Hold", "SeriesNumber": 8, "SeriesTime": "075812.671000", "SliceLocation": -28.966958578258, "SliceThickness": 2.0, "SmallestImagePixelValue": 0, "SoftwareVersions": "syngo MR D11", "SpacingBetweenSlices": 2.4000000259922, "SpecificCharacterSet": "ISO_IR 100", "StudyID": "1", "StudyTime": "073446.906000", "TransmitCoilName": "Body", "VariableFlipAngleFlag": "N", "WindowCenterWidthExplanation": "Algo1", "dBdt": 0.0}, "slices": {}}, "time": {"samples": {"AcquisitionNumber": [1, 2, 3, 4, 5, 6, 7, 8, 9, 10, 11, 12, 13, 14, 15, 16, 17, 18, 19, 20, 21, 22, 23, 24, 25, 26, 27, 28, 29, 30, 31, 32, 33, 34, 35, 36, 37, 38, 39, 40, 41, 42, 43, 44, 45, 46, 47, 48, 49, 50, 51, 52, 53, 54, 55, 56, 57, 58, 59, 60, 61, 62, 63, 64, 65, 66, 67, 68, 69, 70, 71, 72, 73, 74, 75, 76, 77, 78, 79, 80, 81, 82, 83, 84, 85, 86, 87, 88, 89, 90, 91, 92, 93, 94, 95, 96, 97, 98, 99, 100, 101, 102, 103, 104, 105, 106, 107, 108, 109, 110, 111, 112, 113, 114, 115, 116, 117, 118, 119, 120, 121, 122, 123, 124, 125, 126, 127, 128, 129, 130, 131, 132, 133, 134, 135, 136, 137, 138, 139, 140, 141, 142, 143, 144, 145, 146, 147, 148, 149, 150, 151, 152, 153, 154, 155, 156, 157, 158, 159, 160, 161, 162, 163, 164, 165, 166, 167, 168, 169, 170, 171, 172, 173, 174, 175, 176, 177, 178, 179, 180, 181, 182, 183, 184, 185, 186, 187, 188, 189, 190, 191, 192, 193, 194, 195, 196, 197, 198, 199, 200, 201, 202, 203, 204, 205, 206, 207, 208, 209, 210, 211, 212, 213, 214, 215, 216, 217, 218, 219, 220, 221, 222, 223, 224, 225, 226, 227, 228, 229, 230, 231, 232, 233, 234, 235, 236, 237, 238, 239, 240, 241, 242, 243, 244, 245, 246, 247, 248, 249, 250, 251, 252, 253, 254, 255, 256, 257, 258, 259, 260, 261, 262, 263, 264, 265, 266, 267, 268, 269, 270, 271, 272, 273, 274, 275, 276, 277, 278, 279, 280, 281, 282, 283, 284, 285, 286, 287, 288, 289, 290, 291, 292, 293, 294, 295, 296, 297, 298, 299, 300, 301, 302, 303, 304, 305, 306, 307, 308, 309, 310, 311, 312, 313, 314, 315, 316, 317, 318], "AcquisitionTime": ["075714.950000", "075743.950000", "075745.110000", "075746.270000", "075747.430000", "075748.590000", "075749.750000", "075750.910000", "075752.070000", "075753.230000", "075754.390000", "075755.550000", "075756.710000", "075757.870000", "075759.030000", "075800.190000", "075801.350000", "075802.510000", "075803.670000", "075804.830000", "075805.990000", "075807.150000", "075808.310000", "075809.470000", "075810.630000", "075811.790000", "075812.950000", "075814.110000", "075815.270000", "075816.430000", "075817.590000", "075818.750000", "075819.910000", "075821.070000", "075822.230000", "075823.390000", "075824.550000", "075825.710000", "075826.870000", "075828.030000", "075829.190000", "075830.350000", "075831.510000", "075832.670000", "075833.830000", "075834.990000", "075836.150000", "075837.310000", "075838.470000", "075839.630000", "075840.790000", "075841.950000", "075843.110000", "075844.270000", "075845.430000", "075846.590000", "075847.750000", "075848.910000", "075850.070000", "075851.230000", "075852.390000", "075853.550000", "075854.710000", "075855.870000", "075857.030000", "075858.190000", "075859.350000", "075900.510000", "075901.670000", "075902.830000", "075903.990000", "075905.150000", "075906.310000", "075907.470000", "075908.630000", "075909.790000", "075910.950000", "075912.110000", "075913.270000", "075914.430000", "075915.590000", "075916.750000", "075917.910000", "075919.070000", "075920.230000", "075921.390000", "075922.550000", "075923.710000", "075924.870000", "075926.030000", "075927.190000", "075928.350000", "075929.510000", "075930.670000", "075931.830000", "075932.990000", "075934.150000", "075935.310000", "075936.470000", "075937.630000", "075938.790000", "075939.950000", "075941.110000", "075942.270000", "075943.430000", "075944.590000", "075945.750000", "075946.910000", "075948.070000", "075949.230000", "075950.390000", "075951.550000", "075952.710000", "075953.870000", "075955.030000", "075956.190000", "075957.350000", "075958.510000", "075959.670000", "080000.830000", "080001.990000", "080003.150000", "080004.310000", "080005.470000", "080006.630000", "080007.790000", "080008.950000", "080010.110000", "080011.270000", "080012.430000", "080013.590000", "080014.750000", "080015.910000", "080017.070000", "080018.230000", "080019.390000", "080020.550000", "080021.710000", "080022.870000", "080024.030000", "080025.190000", "080026.350000", "080027.510000", "080028.670000", "080029.830000", "080030.990000", "080032.150000", "080033.310000", "080034.470000", "080035.630000", "080036.790000", "080037.950000", "080039.110000", "080040.270000", "080041.430000", "080042.590000", "080043.750000", "080044.910000", "080046.070000", "080047.230000", "080048.390000", "080049.550000", "080050.710000", "080051.870000", "080053.030000", "080054.190000", "080055.350000", "080056.510000", "080057.670000", "080058.830000", "080059.990000", "080101.150000", "080102.310000", "080103.470000", "080104.630000", "080105.790000", "080106.950000", "080108.110000", "080109.270000", "080110.430000", "080111.590000", "080112.750000", "080113.910000", "080115.070000", "080116.230000", "080117.390000", "080118.550000", "080119.710000", "080120.870000", "080122.030000", "080123.190000", "080124.350000", "080125.510000", "080126.670000", "080127.830000", "080128.990000", "080130.152500", "080131.312500", "080132.472500", "080133.632500", "080134.792500", "080135.952500", "080137.112500", "080138.272500", "080139.432500", "080140.592500", "080141.752500", "080142.912500", "080144.072500", "080145.232500", "080146.392500", "080147.552500", "080148.712500", "080149.872500", "080151.032500", "080152.192500", "080153.352500", "080154.512500", "080155.672500", "080156.832500", "080157.992500", "080159.152500", "080200.312500", "080201.472500", "080202.632500", "080203.792500", "080204.952500", "080206.112500", "080207.272500", "080208.432500", "080209.592500", "080210.752500", "080211.912500", "080213.072500", "080214.232500", "080215.392500", "080216.552500", "080217.712500", "080218.872500", "080220.032500", "080221.192500", "080222.352500", "080223.512500", "080224.672500", "080225.832500", "080226.992500", "080228.152500", "080229.312500", "080230.472500", "080231.632500", "080232.792500", "080233.952500", "080235.112500", "080236.272500", "080237.432500", "080238.592500", "080239.752500", "080240.912500", "080242.072500", "080243.232500", "080244.392500", "080245.552500", "080246.712500", "080247.872500", "080249.032500", "080250.192500", "080251.352500", "080252.512500", "080253.672500", "080254.832500", "080255.992500", "080257.152500", "080258.312500", "080259.472500", "080300.632500", "080301.792500", "080302.952500", "080304.112500", "080305.272500", "080306.432500", "080307.592500", "080308.752500", "080309.912500", "080311.072500", "080312.232500", "080313.392500", "080314.552500", "080315.712500", "080316.872500", "080318.032500", "080319.192500", "080320.352500", "080321.512500", "080322.672500", "080323.832500", "080324.992500", "080326.152500", "080327.312500", "080328.472500", "080329.632500", "080330.792500", "080331.952500", "080333.112500", "080334.272500", "080335.432500", "080336.592500", "080337.752500", "080338.912500", "080340.072500", "080341.232500", "080342.392500", "080343.552500", "080344.712500", "080345.872500", "080347.032500", "080348.192500", "080349.352500", "080350.512500"], "ContentTime": ["075812.671000", "075821.828000", "075821.828000", "075821.828000", "075821.828000", "075821.828000", "075821.843000", "075821.843000", "075821.843000", "075826.828000", "075826.828000", "075826.828000", "075831.828000", "075831.828000", "075831.828000", "075831.828000", "075836.828000", "075836.828000", "075836.828000", "075836.828000", "075841.828000", "075841.828000", "075841.828000", "075841.828000", "075846.828000", "075846.828000", "075846.828000", "075846.828000", "075851.828000", "075851.828000", "075851.828000", "075856.828000", "075856.828000", "075856.828000", "075856.828000", "075901.828000", "075901.828000", "075901.843000", "075901.843000", "075906.828000", "075906.828000", "075906.828000", "075906.828000", "075911.828000", "075911.828000", "075911.843000", "075916.828000", "075916.828000", "075916.828000", "075916.828000", "075921.828000", "075921.828000", "075921.828000", "075921.828000", "075926.828000", "075926.828000", "075926.828000", "075926.828000", "075931.828000", "075931.828000", "075931.828000", "075936.828000", "075936.828000", "075936.828000", "075936.843000", "075941.828000", "075941.828000", "075941.828000", "075941.828000", "075946.828000", "075946.828000", "075946.828000", "075946.828000", "075951.828000", "075951.828000", "075951.828000", "075951.828000", "075956.828000", "075956.828000", "075956.828000", "080001.828000", "080001.828000", "080001.843000", "080001.843000", "080006.828000", "080006.828000", "080006.843000", "080006.843000", "080011.828000", "080011.828000", "080011.828000", "080011.828000", "080016.828000", "080016.828000", "080016.828000", "080016.828000", "080021.828000", "080021.828000", "080021.828000", "080026.828000", "080026.828000", "080026.828000", "080026.828000", "080031.828000", "080031.828000", "080031.828000", "080031.828000", "080036.828000", "080036.828000", "080036.828000", "080041.828000", "080041.828000", "080041.828000", "080041.828000", "080046.828000", "080046.828000", "080046.828000", "080046.843000", "080051.828000", "080051.828000", "080051.828000", "080051.828000", "080056.828000", "080056.828000", "080056.828000", "080101.828000", "080101.828000", "080101.828000", "080101.828000", "080106.828000", "080106.828000", "080106.828000", "080106.828000", "080111.828000", "080111.828000", "080111.828000", "080111.828000", "080116.828000", "080116.828000", "080116.828000", "080121.828000", "080121.828000", "080121.828000", "080121.828000", "080126.828000", "080126.828000", "080126.828000", "080126.843000", "080131.828000", "080131.828000", "080131.828000", "080131.828000", "080136.828000", "080136.828000", "080136.828000", "080136.843000", "080141.828000", "080141.828000", "080141.828000", "080141.828000", "080146.828000", "080146.828000", "080146.828000", "080151.828000", "080151.828000", "080151.828000", "080151.828000", "080156.828000", "080156.828000", "080156.828000", "080156.828000", "080201.828000", "080201.828000", "080201.828000", "080206.828000", "080206.828000", "080206.828000", "080206.828000", "080211.828000", "080211.828000", "080211.828000", "080211.828000", "080216.828000", "080216.828000", "080216.828000", "080221.828000", "080221.828000", "080221.828000", "080221.828000", "080226.828000", "080226.828000", "080226.828000", "080226.828000", "080231.828000", "080231.828000", "080231.843000", "080236.828000", "080236.828000", "080236.828000", "080236.828000", "080241.828000", "080241.828000", "080241.828000", "080241.828000", "080246.828000", "080246.828000", "080246.828000", "080246.828000", "080251.828000", "080251.828000", "080251.828000", "080256.828000", "080256.828000", "080256.828000", "080256.843000", "080301.828000", "080301.828000", "080301.828000", "080301.828000", "080306.828000", "080306.828000", "080306.828000", "080306.843000", "080311.828000", "080311.828000", "080311.828000", "080311.828000", "080316.828000", "080316.828000", "080316.828000", "080316.828000", "080321.828000", "080321.828000", "080321.828000", "080326.828000", "080326.828000", "080326.828000", "080326.828000", "080331.828000", "080331.828000", "080331.828000", "080331.828000", "080336.828000", "080336.828000", "080336.828000", "080341.828000", "080341.828000", "080341.828000", "080341.828000", "080346.828000", "080346.828000", "080346.828000", "080346.828000", "080351.828000", "080351.828000", "080351.828000", "080351.828000", "080356.828000", "080356.828000", "080356.828000", "080356.828000", "080401.828000", "080401.828000", "080401.828000", "080406.828000", "080406.828000", "080406.828000", "080406.828000", "080411.828000", "080411.828000", "080411.828000", "080411.828000", "080416.828000", "080416.828000", "080416.828000", "080416.828000", "080421.828000", "080421.828000", "080421.828000", "080421.828000", "080426.828000", "080426.828000", "080426.828000", "080426.828000", "080431.828000", "080431.828000", "080431.828000", "080431.828000", "080436.828000", "080436.828000", "080436.828000", "080436.828000", "080441.828000", "080441.828000", "080441.828000", "080441.828000", "080446.828000", "080446.828000", "080446.828000", "080451.828000", "080451.828000", "080451.828000", "080451.828000", "080456.828000", "080456.828000", "080456.828000", "080456.828000", "080501.828000", "080501.828000", "080501.828000", "080501.828000", "080506.828000", "080506.828000", "080506.828000", "080506.828000", "080509.531000", "080509.546000", "080509.546000"], "InstanceCreationTime": ["075812.671000", "075821.828000", "075821.828000", "075821.828000", "075821.828000", "075821.828000", "075821.843000", "075821.843000", "075821.843000", "075826.828000", "075826.828000", "075826.828000", "075831.828000", "075831.828000", "075831.828000", "075831.828000", "075836.828000", "075836.828000", "075836.828000", "075836.828000", "075841.828000", "075841.828000", "075841.828000", "075841.828000", "075846.828000", "075846.828000", "075846.828000", "075846.828000", "075851.828000", "075851.828000", "075851.828000", "075856.828000", "075856.828000", "075856.828000", "075856.828000", "075901.828000", "075901.828000", "075901.843000", "075901.843000", "075906.828000", "075906.828000", "075906.828000", "075906.828000", "075911.828000", "075911.828000", "075911.843000", "075916.828000", "075916.828000", "075916.828000", "075916.828000", "075921.828000", "075921.828000", "075921.828000", "075921.828000", "075926.828000", "075926.828000", "075926.828000", "075926.828000", "075931.828000", "075931.828000", "075931.828000", "075936.828000", "075936.828000", "075936.828000", "075936.843000", "075941.828000", "075941.828000", "075941.828000", "075941.828000", "075946.828000", "075946.828000", "075946.828000", "075946.828000", "075951.828000", "075951.828000", "075951.828000", "075951.828000", "075956.828000", "075956.828000", "075956.828000", "080001.828000", "080001.828000", "080001.843000", "080001.843000", "080006.828000", "080006.828000", "080006.843000", "080006.843000", "080011.828000", "080011.828000", "080011.828000", "080011.828000", "080016.828000", "080016.828000", "080016.828000", "080016.828000", "080021.828000", "080021.828000", "080021.828000", "080026.828000", "080026.828000", "080026.828000", "080026.828000", "080031.828000", "080031.828000", "080031.828000", "080031.828000", "080036.828000", "080036.828000", "080036.828000", "080041.828000", "080041.828000", "080041.828000", "080041.828000", "080046.828000", "080046.828000", "080046.828000", "080046.843000", "080051.828000", "080051.828000", "080051.828000", "080051.828000", "080056.828000", "080056.828000", "080056.828000", "080101.828000", "080101.828000", "080101.828000", "080101.828000", "080106.828000", "080106.828000", "080106.828000", "080106.828000", "080111.828000", "080111.828000", "080111.828000", "080111.828000", "080116.828000", "080116.828000", "080116.828000", "080121.828000", "080121.828000", "080121.828000", "080121.828000", "080126.828000", "080126.828000", "080126.828000", "080126.843000", "080131.828000", "080131.828000", "080131.828000", "080131.828000", "080136.828000", "080136.828000", "080136.828000", "080136.843000", "080141.828000", "080141.828000", "080141.828000", "080141.828000", "080146.828000", "080146.828000", "080146.828000", "080151.828000", "080151.828000", "080151.828000", "080151.828000", "080156.828000", "080156.828000", "080156.828000", "080156.828000", "080201.828000", "080201.828000", "080201.828000", "080206.828000", "080206.828000", "080206.828000", "080206.828000", "080211.828000", "080211.828000", "080211.828000", "080211.828000", "080216.828000", "080216.828000", "080216.828000", "080221.828000", "080221.828000", "080221.828000", "080221.828000", "080226.828000", "080226.828000", "080226.828000", "080226.828000", "080231.828000", "080231.828000", "080231.843000", "080236.828000", "080236.828000", "080236.828000", "080236.828000", "080241.828000", "080241.828000", "080241.828000", "080241.828000", "080246.828000", "080246.828000", "080246.828000", "080246.828000", "080251.828000", "080251.828000", "080251.828000", "080256.828000", "080256.828000", "080256.828000", "080256.843000", "080301.828000", "080301.828000", "080301.828000", "080301.828000", "080306.828000", "080306.828000", "080306.828000", "080306.843000", "080311.828000", "080311.828000", "080311.828000", "080311.828000", "080316.828000", "080316.828000", "080316.828000", "080316.828000", "080321.828000", "080321.828000", "080321.828000", "080326.828000", "080326.828000", "080326.828000", "080326.828000", "080331.828000", "080331.828000", "080331.828000", "080331.828000", "080336.828000", "080336.828000", "080336.828000", "080341.828000", "080341.828000", "080341.828000", "080341.828000", "080346.828000", "080346.828000", "080346.828000", "080346.828000", "080351.828000", "080351.828000", "080351.828000", "080351.828000", "080356.828000", "080356.828000", "080356.828000", "080356.828000", "080401.828000", "080401.828000", "080401.828000", "080406.828000", "080406.828000", "080406.828000", "080406.828000", "080411.828000", "080411.828000", "080411.828000", "080411.828000", "080416.828000", "080416.828000", "080416.828000", "080416.828000", "080421.828000", "080421.828000", "080421.828000", "080421.828000", "080426.828000", "080426.828000", "080426.828000", "080426.828000", "080431.828000", "080431.828000", "080431.828000", "080431.828000", "080436.828000", "080436.828000", "080436.828000", "080436.828000", "080441.828000", "080441.828000", "080441.828000", "080441.828000", "080446.828000", "080446.828000", "080446.828000", "080451.828000", "080451.828000", "080451.828000", "080451.828000", "080456.828000", "080456.828000", "080456.828000", "080456.828000", "080501.828000", "080501.828000", "080501.828000", "080501.828000", "080506.828000", "080506.828000", "080506.828000", "080506.828000", "080509.531000", "080509.546000", "080509.546000"], "InstanceNumber": [1, 2, 3, 4, 5, 6, 7, 8, 9, 10, 11, 12, 13, 14, 15, 16, 17, 18, 19, 20, 21, 22, 23, 24, 25, 26, 27, 28, 29, 30, 31, 32, 33, 34, 35, 36, 37, 38, 39, 40, 41, 42, 43, 44, 45, 46, 47, 48, 49, 50, 51, 52, 53, 54, 55, 56, 57, 58, 59, 60, 61, 62, 63, 64, 65, 66, 67, 68, 69, 70, 71, 72, 73, 74, 75, 76, 77, 78, 79, 80, 81, 82, 83, 84, 85, 86, 87, 88, 89, 90, 91, 92, 93, 94, 95, 96, 97, 98, 99, 100, 101, 102, 103, 104, 105, 106, 107, 108, 109, 110, 111, 112, 113, 114, 115, 116, 117, 118, 119, 120, 121, 122, 123, 124, 125, 126, 127, 128, 129, 130, 131, 132, 133, 134, 135, 136, 137, 138, 139, 140, 141, 142, 143, 144, 145, 146, 147, 148, 149, 150, 151, 152, 153, 154, 155, 156, 157, 158, 159, 160, 161, 162, 163, 164, 165, 166, 167, 168, 169, 170, 171, 172, 173, 174, 175, 176, 177, 178, 179, 180, 181, 182, 183, 184, 185, 186, 187, 188, 189, 190, 191, 192, 193, 194, 195, 196, 197, 198, 199, 200, 201, 202, 203, 204, 205, 206, 207, 208, 209, 210, 211, 212, 213, 214, 215, 216, 217, 218, 219, 220, 221, 222, 223, 224, 225, 226, 227, 228, 229, 230, 231, 232, 233, 234, 235, 236, 237, 238, 239, 240, 241, 242, 243, 244, 245, 246, 247, 248, 249, 250, 251, 252, 253, 254, 255, 256, 257, 258, 259, 260, 261, 262, 263, 264, 265, 266, 267, 268, 269, 270, 271, 272, 273, 274, 275, 276, 277, 278, 279, 280, 281, 282, 283, 284, 285, 286, 287, 288, 289, 290, 291, 292, 293, 294, 295, 296, 297, 298, 299, 300, 301, 302, 303, 304, 305, 306, 307, 308, 309, 310, 311, 312, 313, 314, 315, 316, 317, 318], "LargestImagePixelValue": [30101, 29831, 29246, 29398, 29083, 29163, 29095, 28918, 28614, 28795, 28765, 28844, 29009, 29077, 28770, 28933, 29345, 29132, 28939, 28629, 29074, 28684, 29055, 28784, 29132, 28940, 28735, 28571, 28969, 28630, 28759, 28734, 28569, 28588, 28655, 28905, 28799, 28850, 28650, 28905, 28798, 28857, 28827, 28841, 28549, 28975, 28729, 29016, 28542, 28767, 28526, 28857, 28527, 28635, 28518, 28388, 28528, 28455, 28690, 28458, 28494, 28439, 28085, 28181, 31010, 28576, 28605, 28581, 28251, 28729, 28463, 28379, 28656, 29093, 31392, 28806, 28527, 28359, 28688, 30273, 28227, 28465, 28408, 28578, 28899, 28673, 28426, 28321, 28615, 28634, 28547, 28817, 28838, 28905, 29943, 28632, 28747, 28656, 28739, 28950, 28690, 28731, 28736, 28612, 28580, 28568, 28739, 28520, 28517, 28444, 28493, 28456, 28583, 28595, 28253, 28484, 28605, 29447, 28704, 28781, 28729, 28428, 28726, 28742, 28813, 29003, 28956, 28610, 28929, 28877, 28835, 28865, 28794, 28757, 28964, 28673, 29082, 28733, 28761, 28577, 29220, 28648, 28920, 28667, 28864, 28818, 28698, 29073, 28698, 28773, 28839, 28953, 29005, 28580, 28747, 28797, 28622, 28813, 28648, 28819, 28910, 28772, 28499, 28487, 28603, 28539, 28776, 28490, 28445, 28457, 30845, 28776, 28731, 28658, 28447, 28822, 29234, 28814, 28858, 28701, 28643, 28492, 28828, 28996, 29057, 28963, 28918, 28727, 28814, 28693, 28995, 28719, 28766, 28736, 28809, 29049, 28641, 29011, 28780, 28850, 28848, 29148, 28780, 28933, 28737, 28651, 28696, 28664, 28748, 28591, 28717, 28688, 28691, 28579, 28543, 28970, 29118, 28756, 28931, 28913, 28743, 28738, 28884, 29021, 29095, 28922, 28890, 28737, 29076, 29394, 28999, 28955, 28847, 28772, 29016, 28878, 29013, 28821, 28554, 28583, 28829, 28999, 28905, 28886, 28856, 28936, 28930, 28973, 28903, 29062, 28963, 29034, 28714, 29035, 28938, 28936, 28916, 29015, 28705, 29212, 28792, 28703, 28888, 28645, 28745, 28709, 28702, 28634, 28818, 28770, 28656, 28930, 28527, 28597, 28327, 28749, 28660, 28719, 29101, 28704, 28969, 28710, 28949, 28987, 28925, 28880, 28769, 29103, 28932, 28784, 28905, 28668, 28935, 28818, 28993, 28860, 28843, 29093, 28789, 28840, 28920, 28701, 28996, 28812, 29016, 28905, 28701, 28890, 28983, 28811, 28767, 29059, 28569, 28967, 28714, 28658, 28554, 28483], "WindowCenter": [10382.0, 10372.0, 10360.0, 10357.0, 10351.0, 10360.0, 10344.0, 10353.0, 10315.0, 10339.0, 10337.0, 10351.0, 10334.0, 10327.0, 10316.0, 10331.0, 10327.0, 10328.0, 10306.0, 10306.0, 10323.0, 10323.0, 10317.0, 10330.0, 10323.0, 10316.0, 10326.0, 10332.0, 10337.0, 10342.0, 10324.0, 10321.0, 10322.0, 10310.0, 10331.0, 10312.0, 10305.0, 10322.0, 10333.0, 10330.0, 10317.0, 10309.0, 10318.0, 10290.0, 10323.0, 10325.0, 10335.0, 10335.0, 10319.0, 10334.0, 10341.0, 10362.0, 10365.0, 10360.0, 10361.0, 10349.0, 10379.0, 10363.0, 10372.0, 10383.0, 10392.0, 10377.0, 10380.0, 10384.0, 10384.0, 10358.0, 10366.0, 10348.0, 10357.0, 10340.0, 10338.0, 10320.0, 10328.0, 10343.0, 10389.0, 10382.0, 10353.0, 10316.0, 10329.0, 10299.0, 10284.0, 10286.0, 10297.0, 10308.0, 10300.0, 10271.0, 10289.0, 10277.0, 10295.0, 10299.0, 10303.0, 10338.0, 10315.0, 10294.0, 10329.0, 10303.0, 10289.0, 10306.0, 10304.0, 10318.0, 10331.0, 10348.0, 10342.0, 10361.0, 10342.0, 10361.0, 10352.0, 10328.0, 10343.0, 10341.0, 10360.0, 10350.0, 10356.0, 10363.0, 10353.0, 10368.0, 10349.0, 10362.0, 10353.0, 10352.0, 10317.0, 10339.0, 10331.0, 10329.0, 10308.0, 10302.0, 10298.0, 10295.0, 10281.0, 10270.0, 10276.0, 10290.0, 10268.0, 10282.0, 10294.0, 10314.0, 10288.0, 10301.0, 10302.0, 10304.0, 10287.0, 10316.0, 10300.0, 10289.0, 10314.0, 10294.0, 10312.0, 10311.0, 10293.0, 10313.0, 10302.0, 10315.0, 10327.0, 10337.0, 10356.0, 10345.0, 10347.0, 10364.0, 10359.0, 10359.0, 10366.0, 10332.0, 10335.0, 10361.0, 10359.0, 10368.0, 10381.0, 10366.0, 10349.0, 10348.0, 10363.0, 10341.0, 10321.0, 10340.0, 10325.0, 10338.0, 10331.0, 10318.0, 10323.0, 10308.0, 10307.0, 10297.0, 10314.0, 10288.0, 10291.0, 10292.0, 10273.0, 10306.0, 10281.0, 10310.0, 10299.0, 10304.0, 10285.0, 10313.0, 10311.0, 10260.0, 10303.0, 10306.0, 10300.0, 10301.0, 10272.0, 10306.0, 10309.0, 10296.0, 10321.0, 10336.0, 10330.0, 10346.0, 10354.0, 10361.0, 10355.0, 10348.0, 10374.0, 10366.0, 10346.0, 10369.0, 10363.0, 10370.0, 10359.0, 10369.0, 10344.0, 10365.0, 10357.0, 10338.0, 10325.0, 10337.0, 10317.0, 10302.0, 10312.0, 10325.0, 10317.0, 10294.0, 10284.0, 10292.0, 10310.0, 10309.0, 10280.0, 10288.0, 10300.0, 10299.0, 10312.0, 10296.0, 10316.0, 10311.0, 10290.0, 10300.0, 10296.0, 10289.0, 10304.0, 10285.0, 10314.0, 10308.0, 10296.0, 10286.0, 10288.0, 10307.0, 10302.0, 10314.0, 10323.0, 10323.0, 10321.0, 10343.0, 10362.0, 10336.0, 10360.0, 10357.0, 10351.0, 10341.0, 10363.0, 10366.0, 10344.0, 10378.0, 10365.0, 10366.0, 10364.0, 10361.0, 10346.0, 10339.0, 10327.0, 10325.0, 10321.0, 10342.0, 10314.0, 10294.0, 10295.0, 10302.0, 10309.0, 10306.0, 10307.0, 10304.0, 10281.0, 10305.0, 10288.0, 10294.0, 10303.0, 10308.0, 10284.0, 10273.0, 10303.0, 10296.0, 10312.0, 10303.0, 10315.0, 10296.0, 10286.0, 10306.0, 10279.0, 10282.0, 10301.0, 10305.0, 10284.0, 10315.0, 10331.0, 10321.0, 10337.0, 10360.0, 10365.0, 10367.0], "WindowWidth": [22093.0, 22066.0, 22036.0, 22021.0, 22009.0, 22023.0, 21993.0, 22010.0, 21938.0, 21978.0, 21979.0, 22000.0, 21966.0, 21954.0, 21927.0, 21953.0, 21942.0, 21947.0, 21905.0, 21906.0, 21933.0, 21939.0, 21928.0, 21953.0, 21941.0, 21932.0, 21949.0, 21956.0, 21966.0, 21975.0, 21943.0, 21939.0, 21936.0, 21913.0, 21949.0, 21914.0, 21908.0, 21938.0, 21968.0, 21960.0, 21936.0, 21913.0, 21929.0, 21878.0, 21940.0, 21943.0, 21965.0, 21964.0, 21939.0, 21970.0, 21991.0, 22032.0, 22043.0, 22033.0, 22040.0, 22014.0, 22069.0, 22042.0, 22058.0, 22087.0, 22105.0, 22078.0, 22084.0, 22089.0, 22086.0, 22031.0, 22046.0, 22003.0, 22013.0, 21981.0, 21973.0, 21