{
    "AcquisitionMatrixPE": 96,
    "AcquisitionNumber": 1,
    "AcquisitionTime": "07:33:23.197500",
    "BandwidthPerPixelPhaseEncode": 33.602,
    "BaseResolution": 96,
    "BodyPartExamined": "BRAIN",
    "ConsistencyInfo": "N4_VD11D_LATEST_20110129",
    "ConversionSoftware": "dcm2niix",
    "ConversionSoftwareVersion": "v1.0.20210317",
    "DerivedVendorReportedEchoSpacing": 0.000620003,
    "DeviceSerialNumber": "45239",
    "DwellTime": 2.6e-06,
    "EchoTime": 0.03,
    "EchoTrainLength": 48,
    "EffectiveEchoSpacing": 0.000310001,
    "FlipAngle": 63,
    "ImageComments": "Unaliased MB4/PE3",
    "ImageOrientationPatientDICOM": [
        0.999854,
        -0.0130498,
        0.0110237,
        0.0167223,
        0.879553,
        -0.475506
    ],
    "ImageType": [
        "ORIGINAL",
        "PRIMARY",
        "M",
        "ND",
        "NORM",
        "MOSAIC"
    ],
    "ImagingFrequency": 123.193,
    "InPlanePhaseEncodingDirectionDICOM": "COL",
    "InstitutionAddress": "E 24th St. 100,Austin,Southmiddle,US,78712",
    "InstitutionName": "Univ of Texas at Austin",
    "InstitutionalDepartmentName": "IRC",
    "MRAcquisitionType": "2D",
    "MagneticFieldStrength": 3,
    "Manufacturer": "Siemens",
    "ManufacturersModelName": "Skyra",
    "Modality": "MR",
    "MultibandAccelerationFactor": 4,
    "ParallelReductionFactorInPlane": 2,
    "PartialFourier": 1,
    "PatientPosition": "HFS",
    "PercentPhaseFOV": 100,
    "PercentSampling": 100,
    "PhaseEncodingDirection": "j-",
    "PhaseEncodingSteps": 96,
    "PhaseResolution": 1,
    "PixelBandwidth": 2005,
    "ProcedureStepDescription": "Poldrack2^self-scanning",
    "ProtocolName": "Resting State fMRI MBEPI_matrix96_BW2004",
    "PulseSequenceDetails": "%CustomerSeq%\\cmrr_mbep2d_bold",
    "ReceiveCoilActiveElements": "HEA;HEP",
    "ReceiveCoilName": "Head_32",
    "ReconMatrixPE": 96,
    "RefLinesPE": 94,
    "RepetitionTime": 1.16,
    "SAR": 0.106183,
    "ScanOptions": "FS",
    "ScanningSequence": "EP",
    "SequenceName": "epfid2d1_96",
    "SequenceVariant": "SK",
    "SeriesDescription": "Resting State fMRI MBEPI_matrix96_BW2004",
    "SeriesNumber": 6,
    "ShimSetting": [
        -2799,
        7992,
        -15431,
        154,
        -179,
        -25,
        335,
        -105
    ],
    "SliceThickness": 2,
    "SliceTiming": [
        0,
        0.4975,
        0.9975,
        0.355,
        0.855,
        0.2125,
        0.7125,
        0.07,
        0.57,
        1.0675,
        0.4275,
        0.925,
        0.285,
        0.7825,
        0.1425,
        0.64,
        0,
        0.4975,
        0.9975,
        0.355,
        0.855,
        0.2125,
        0.7125,
        0.07,
        0.57,
        1.0675,
        0.4275,
        0.925,
        0.285,
        0.7825,
        0.1425,
        0.64,
        0,
        0.4975,
        0.9975,
        0.355,
        0.855,
        0.2125,
        0.7125,
        0.07,
        0.57,
        1.0675,
        0.4275,
        0.925,
        0.285,
        0.7825,
        0.1425,
        0.64,
        0,
        0.4975,
        0.9975,
        0.355,
        0.855,
        0.2125,
        0.7125,
        0.07,
        0.57,
        1.0675,
        0.4275,
        0.925,
        0.285,
        0.7825,
        0.1425,
        0.64
    ],
    "SoftwareVersions": "syngo MR D11",
    "SpacingBetweenSlices": 2.4,
    "StationName": "AWP45239",
    "TaskName": "Resting fmri",
    "TotalReadoutTime": 0.0294501,
    "TxRefAmp": 348.313,
    "WipMemBlock": "7549a738-b989-4f04-a0b0-a9c1a916e99d||Sequence: VD11D r206; Feb 13 2013 18:52:04 by eja",
    "dcmmeta_affine": [
        [
            -2.3954837322235107,
            0.04006374999880791,
            0.008377628400921822,
            117.37720489501953
        ],
        [
            0.03126510605216026,
            2.1072630882263184,
            -1.141491174697876,
            -77.0395278930664
        ],
        [
            0.02641095221042633,
            1.139233946800232,
            2.1111438274383545,
            -76.58582305908203
        ],
        [
            0.0,
            0.0,
            0.0,
            1.0
        ]
    ],
    "dcmmeta_reorient_transform": [
        [
            0.0,
            -1.0,
            0.0,
            95.0
        ],
        [
            1.0,
            0.0,
            0.0,
            0.0
        ],
        [
            0.0,
            0.0,
            1.0,
            0.0
        ],
        [
            0.0,
            0.0,
            0.0,
            1.0
        ]
    ],
    "dcmmeta_shape": [
        96,
        96,
        64,
        518
    ],
    "dcmmeta_slice_dim": 2,
    "dcmmeta_version": 0.6,
    "global": {
        "const": {
            "AcquisitionMatrix": [
                96,
                0,
                0,
                96
            ],
            "AngioFlag": "N",
            "BitsAllocated": 16,
            "BitsStored": 16,
            "BodyPartExamined": "BRAIN",
            "Columns": 768,
            "EchoNumbers": 1,
            "EchoTime": 30.0,
            "EchoTrainLength": 48,
            "FlipAngle": 63.0,
            "HighBit": 15,
            "ImageOrientationPatient": [
                0.99985407992243,
                -0.0130497837537,
                0.0110237020304,
                0.01672226136282,
                0.87955333238699,
                -0.4755063632191
            ],
            "ImagePositionPatient": [
                -939.52718812744,
                -820.68580177564,
                405.54993095405
            ],
            "ImageType": [
                "ORIGINAL",
                "PRIMARY",
                "M",
                "ND",
                "NORM",
                "MOSAIC"
            ],
            "ImagedNucleus": "1H",
            "ImagingFrequency": 123.193312,
            "InPlanePhaseEncodingDirection": "COL",
            "MRAcquisitionType": "2D",
            "MagneticFieldStrength": 3.0,
            "Manufacturer": "SIEMENS",
            "ManufacturerModelName": "Skyra",
            "Modality": "MR",
            "NumberOfAverages": 1.0,
            "NumberOfPhaseEncodingSteps": 96,
            "PercentPhaseFieldOfView": 100.0,
            "PercentSampling": 100.0,
            "PerformedProcedureStepStartTime": "072438.593000",
            "PhotometricInterpretation": "MONOCHROME2",
            "PixelBandwidth": 2005.0,
            "PixelRepresentation": 0,
            "PixelSpacing": [
                2.3958332538605,
                2.3958332538605
            ],
            "ProtocolName": "Resting State fMRI MBEPI_matrix96_BW2004",
            "RepetitionTime": 1160.0,
            "Rows": 768,
            "SAR": 0.1061828792824,
            "SamplesPerPixel": 1,
            "ScanOptions": "FS",
            "ScanningSequence": "EP",
            "SequenceName": "epfid2d1_96",
            "SequenceVariant": "SK",
            "SeriesDescription": "Resting State fMRI MBEPI_matrix96_BW2004",
            "SeriesNumber": 6,
            "SeriesTime": "073402.500000",
            "SliceLocation": -30.316832646643,
            "SliceThickness": 2.0,
            "SmallestImagePixelValue": 0,
            "SoftwareVersions": "syngo MR D11",
            "SpacingBetweenSlices": 2.4000000189167,
            "SpecificCharacterSet": "ISO_IR 100",
            "StudyID": "1",
            "StudyTime": "072438.531000",
            "TransmitCoilName": "Body",
            "VariableFlipAngleFlag": "N",
            "WindowCenterWidthExplanation": "Algo1",
            "dBdt": 0.0
        },
        "slices": {}
    },
    "time": {
        "samples": {
            "AcquisitionNumber": [
                1,
                2,
                3,
                4,
                5,
                6,
                7,
                8,
                9,
                10,
                11,
                12,
                13,
                14,
                15,
                16,
                17,
                18,
                19,
                20,
                21,
                22,
                23,
                24,
                25,
                26,
                27,
                28,
                29,
                30,
                31,
                32,
                33,
                34,
                35,
                36,
                37,
                38,
                39,
                40,
                41,
                42,
                43,
                44,
                45,
                46,
                47,
                48,
                49,
                50,
                51,
                52,
                53,
                54,
                55,
                56,
                57,
                58,
                59,
                60,
                61,
                62,
                63,
                64,
                65,
                66,
                67,
                68,
                69,
                70,
                71,
                72,
                73,
                74,
                75,
                76,
                77,
                78,
                79,
                80,
                81,
                82,
                83,
                84,
                85,
                86,
                87,
                88,
                89,
                90,
                91,
                92,
                93,
                94,
                95,
                96,
                97,
                98,
                99,
                100,
                101,
                102,
                103,
                104,
                105,
                106,
                107,
                108,
                109,
                110,
                111,
                112,
                113,
                114,
                115,
                116,
                117,
                118,
                119,
                120,
                121,
                122,
                123,
                124,
                125,
                126,
                127,
                128,
                129,
                130,
                131,
                132,
                133,
                134,
                135,
                136,
                137,
                138,
                139,
                140,
                141,
                142,
                143,
                144,
                145,
                146,
                147,
                148,
                149,
                150,
                151,
                152,
                153,
                154,
                155,
                156,
                157,
                158,
                159,
                160,
                161,
                162,
                163,
                164,
                165,
                166,
                167,
                168,
                169,
                170,
                171,
                172,
                173,
                174,
                175,
                176,
                177,
                178,
                179,
                180,
                181,
                182,
                183,
                184,
                185,
                186,
                187,
                188,
                189,
                190,
                191,
                192,
                193,
                194,
                195,
                196,
                197,
                198,
                199,
                200,
                201,
                202,
                203,
                204,
                205,
                206,
                207,
                208,
                209,
                210,
                211,
                212,
                213,
                214,
                215,
                216,
                217,
                218,
                219,
                220,
                221,
                222,
                223,
                224,
                225,
                226,
                227,
                228,
                229,
                230,
                231,
                232,
                233,
                234,
                235,
                236,
                237,
                238,
                239,
                240,
                241,
                242,
                243,
                244,
                245,
                246,
                247,
                248,
                249,
                250,
                251,
                252,
                253,
                254,
                255,
                256,
                257,
                258,
                259,
                260,
                261,
                262,
                263,
                264,
                265,
                266,
                267,
                268,
                269,
                270,
                271,
                272,
                273,
                274,
                275,
                276,
                277,
                278,
                279,
                280,
                281,
                282,
                283,
                284,
                285,
                286,
                287,
                288,
                289,
                290,
                291,
                292,
                293,
                294,
                295,
                296,
                297,
                298,
                299,
                300,
                301,
                302,
                303,
                304,
                305,
                306,
                307,
                308,
                309,
                310,
                311,
                312,
                313,
                314,
                315,
                316,
                317,
                318,
                319,
                320,
                321,
                322,
                323,
                324,
                325,
                326,
                327,
                328,
                329,
                330,
                331,
                332,
                333,
                334,
                335,
                336,
                337,
                338,
                339,
                340,
                341,
                342,
                343,
                344,
                345,
                346,
                347,
                348,
                349,
                350,
                351,
                352,
                353,
                354,
                355,
                356,
                357,
                358,
                359,
                360,
                361,
                362,
                363,
                364,
                365,
                366,
                367,
                368,
                369,
                370,
                371,
                372,
                373,
                374,
                375,
                376,
                377,
                378,
                379,
                380,
                381,
                382,
                383,
                384,
                385,
                386,
                387,
                388,
                389,
                390,
                391,
                392,
                393,
                394,
                395,
                396,
                397,
                398,
                399,
                400,
                401,
                402,
                403,
                404,
                405,
                406,
                407,
                408,
                409,
                410,
                411,
                412,
                413,
                414,
                415,
                416,
                417,
                418,
                419,
                420,
                421,
                422,
                423,
                424,
                425,
                426,
                427,
                428,
                429,
                430,
                431,
                432,
                433,
                434,
                435,
                436,
                437,
                438,
                439,
                440,
                441,
                442,
                443,
                444,
                445,
                446,
                447,
                448,
                449,
                450,
                451,
                452,
                453,
                454,
                455,
                456,
                457,
                458,
                459,
                460,
                461,
                462,
                463,
                464,
                465,
                466,
                467,
                468,
                469,
                470,
                471,
                472,
                473,
                474,
                475,
                476,
                477,
                478,
                479,
                480,
                481,
                482,
                483,
                484,
                485,
                486,
                487,
                488,
                489,
                490,
                491,
                492,
                493,
                494,
                495,
                496,
                497,
                498,
                499,
                500,
                501,
                502,
                503,
                504,
                505,
                506,
                507,
                508,
                509,
                510,
                511,
                512,
                513,
                514,
                515,
                516,
                517,
                518
            ],
            "AcquisitionTime": [
                "073323.197500",
                "073352.197500",
                "073353.357500",
                "073354.517500",
                "073355.677500",
                "073356.837500",
                "073357.997500",
                "073359.157500",
                "073400.317500",
                "073401.477500",
                "073402.637500",
                "073403.797500",
                "073404.957500",
                "073406.117500",
                "073407.277500",
                "073408.437500",
                "073409.597500",
                "073410.757500",
                "073411.917500",
                "073413.077500",
                "073414.237500",
                "073415.397500",
                "073416.557500",
                "073417.717500",
                "073418.877500",
                "073420.037500",
                "073421.197500",
                "073422.357500",
                "073423.517500",
                "073424.677500",
                "073425.837500",
                "073426.997500",
                "073428.157500",
                "073429.317500",
                "073430.477500",
                "073431.637500",
                "073432.797500",
                "073433.957500",
                "073435.117500",
                "073436.277500",
                "073437.437500",
                "073438.597500",
                "073439.757500",
                "073440.917500",
                "073442.077500",
                "073443.237500",
                "073444.397500",
                "073445.557500",
                "073446.717500",
                "073447.877500",
                "073449.037500",
                "073450.197500",
                "073451.357500",
                "073452.517500",
                "073453.677500",
                "073454.837500",
                "073455.997500",
                "073457.157500",
                "073458.317500",
                "073459.477500",
                "073500.637500",
                "073501.797500",
                "073502.957500",
                "073504.117500",
                "073505.277500",
                "073506.437500",
                "073507.597500",
                "073508.757500",
                "073509.917500",
                "073511.077500",
                "073512.237500",
                "073513.397500",
                "073514.557500",
                "073515.717500",
                "073516.877500",
                "073518.037500",
                "073519.197500",
                "073520.357500",
                "073521.517500",
                "073522.677500",
                "073523.837500",
                "073524.997500",
                "073526.157500",
                "073527.317500",
                "073528.477500",
                "073529.637500",
                "073530.797500",
                "073531.957500",
                "073533.117500",
                "073534.277500",
                "073535.437500",
                "073536.597500",
                "073537.757500",
                "073538.917500",
                "073540.077500",
                "073541.237500",
                "073542.397500",
                "073543.557500",
                "073544.717500",
                "073545.877500",
                "073547.037500",
                "073548.197500",
                "073549.357500",
                "073550.517500",
                "073551.677500",
                "073552.837500",
                "073553.997500",
                "073555.157500",
                "073556.317500",
                "073557.477500",
                "073558.637500",
                "073559.797500",
                "073600.957500",
                "073602.117500",
                "073603.277500",
                "073604.437500",
                "073605.597500",
                "073606.757500",
                "073607.917500",
                "073609.077500",
                "073610.237500",
                "073611.397500",
                "073612.557500",
                "073613.717500",
                "073614.877500",
                "073616.037500",
                "073617.197500",
                "073618.357500",
                "073619.517500",
                "073620.677500",
                "073621.837500",
                "073622.997500",
                "073624.157500",
                "073625.317500",
                "073626.477500",
                "073627.637500",
                "073628.797500",
                "073629.957500",
                "073631.117500",
                "073632.277500",
                "073633.437500",
                "073634.597500",
                "073635.757500",
                "073636.917500",
                "073638.077500",
                "073639.237500",
                "073640.397500",
                "073641.557500",
                "073642.717500",
                "073643.877500",
                "073645.037500",
                "073646.197500",
                "073647.357500",
                "073648.517500",
                "073649.677500",
                "073650.837500",
                "073651.997500",
                "073653.157500",
                "073654.317500",
                "073655.477500",
                "073656.637500",
                "073657.797500",
                "073658.957500",
                "073700.117500",
                "073701.277500",
                "073702.437500",
                "073703.597500",
                "073704.757500",
                "073705.920000",
                "073707.080000",
                "073708.240000",
                "073709.400000",
                "073710.560000",
                "073711.720000",
                "073712.880000",
                "073714.040000",
                "073715.200000",
                "073716.360000",
                "073717.520000",
                "073718.680000",
                "073719.840000",
                "073721.000000",
                "073722.160000",
                "073723.320000",
                "073724.480000",
                "073725.640000",
                "073726.800000",
                "073727.960000",
                "073729.120000",
                "073730.280000",
                "073731.440000",
                "073732.600000",
                "073733.760000",
                "073734.920000",
                "073736.080000",
                "073737.240000",
                "073738.400000",
                "073739.560000",
                "073740.720000",
                "073741.880000",
                "073743.040000",
                "073744.200000",
                "073745.360000",
                "073746.520000",
                "073747.680000",
                "073748.840000",
                "073750.000000",
                "073751.160000",
                "073752.320000",
                "073753.480000",
                "073754.640000",
                "073755.800000",
                "073756.960000",
                "073758.120000",
                "073759.280000",
                "073800.440000",
                "073801.600000",
                "073802.760000",
                "073803.920000",
                "073805.080000",
                "073806.240000",
                "073807.400000",
                "073808.560000",
                "073809.720000",
                "073810.880000",
                "073812.040000",
                "073813.200000",
                "073814.360000",
                "073815.520000",
                "073816.680000",
                "073817.840000",
                "073819.000000",
                "073820.160000",
                "073821.320000",
                "073822.480000",
                "073823.640000",
                "073824.800000",
                "073825.960000",
                "073827.120000",
                "073828.280000",
                "073829.440000",
                "073830.600000",
                "073831.760000",
                "073832.920000",
                "073834.080000",
                "073835.240000",
                "073836.400000",
                "073837.560000",
                "073838.720000",
                "073839.880000",
                "073841.040000",
                "073842.200000",
                "073843.360000",
                "073844.520000",
                "073845.680000",
                "073846.840000",
                "073848.000000",
                "073849.160000",
                "073850.320000",
                "073851.480000",
                "073852.640000",
                "073853.800000",
                "073854.960000",
                "073856.120000",
                "073857.280000",
                "073858.440000",
                "073859.600000",
                "073900.760000",
                "073901.920000",
                "073903.080000",
                "073904.240000",
                "073905.400000",
                "073906.560000",
                "073907.720000",
                "073908.880000",
                "073910.040000",
                "073911.200000",
                "073912.360000",
                "073913.520000",
                "073914.680000",
                "073915.840000",
                "073917.000000",
                "073918.160000",
                "073919.320000",
                "073920.480000",
                "073921.640000",
                "073922.800000",
                "073923.960000",
                "073925.120000",
                "073926.280000",
                "073927.440000",
                "073928.600000",
                "073929.760000",
                "073930.920000",
                "073932.080000",
                "073933.240000",
                "073934.400000",
                "073935.560000",
                "073936.720000",
                "073937.880000",
                "073939.040000",
                "073940.200000",
                "073941.360000",
                "073942.520000",
                "073943.680000",
                "073944.840000",
                "073946.000000",
                "073947.160000",
                "073948.320000",
                "073949.480000",
                "073950.640000",
                "073951.800000",
                "073952.960000",
                "073954.120000",
                "073955.280000",
                "073956.440000",
                "073957.600000",
                "073958.760000",
                "073959.920000",
                "074001.080000",
                "074002.240000",
                "074003.400000",
                "074004.560000",
                "074005.720000",
                "074006.880000",
                "074008.040000",
                "074009.200000",
                "074010.360000",
                "074011.520000",
                "074012.680000",
                "074013.840000",
                "074015.000000",
                "074016.160000",
                "074017.320000",
                "074018.480000",
                "074019.640000",
                "074020.800000",
                "074021.960000",
                "074023.120000",
                "074024.280000",
                "074025.440000",
                "074026.600000",
                "074027.760000",
                "074028.920000",
                "074030.080000",
                "074031.240000",
                "074032.400000",
