{"AcquisitionMatrixPE": 96, "AcquisitionNumber": 1, "AcquisitionTime": "07:54:42.185000", "BandwidthPerPixelPhaseEncode": 33.602, "BaseResolution": 96, "BodyPartExamined": "BRAIN", "ConsistencyInfo": "N4_VD11D_LATEST_20110129", "ConversionSoftware": "dcm2niix", "ConversionSoftwareVersion": "v1.0.20210317", "DerivedVendorReportedEchoSpacing": 0.000620003, "DeviceSerialNumber": "45239", "DwellTime": 2.6e-06, "EchoTime": 0.03, "EchoTrainLength": 48, "EffectiveEchoSpacing": 0.000310001, "FlipAngle": 63, "ImageComments": "Unaliased MB4/PE3", "ImageOrientationPatientDICOM": [0.999998, -0.00176967, 0.00094093, 0.00200427, 0.882946, -0.469471], "ImageType": ["ORIGINAL", "PRIMARY", "M", "ND", "NORM", "MOSAIC"], "ImagingFrequency": 123.193, "InPlanePhaseEncodingDirectionDICOM": "COL", "InstitutionAddress": "E 24th St. 100,Austin,Southmiddle,US,78712", "InstitutionName": "Univ of Texas at Austin", "InstitutionalDepartmentName": "IRC", "MRAcquisitionType": "2D", "MagneticFieldStrength": 3, "Manufacturer": "Siemens", "ManufacturersModelName": "Skyra", "Modality": "MR", "MultibandAccelerationFactor": 4, "ParallelReductionFactorInPlane": 2, "PartialFourier": 1, "PatientPosition": "HFS", "PercentPhaseFOV": 100, "PercentSampling": 100, "PhaseEncodingDirection": "j-", "PhaseEncodingSteps": 96, "PhaseResolution": 1, "PixelBandwidth": 2005, "ProcedureStepDescription": "Poldrack2^self-scanning", "ProtocolName": "dots_motion", "PulseSequenceDetails": "%CustomerSeq%\\cmrr_mbep2d_bold", "ReceiveCoilActiveElements": "HEA;HEP", "ReceiveCoilName": "Head_32", "ReconMatrixPE": 96, "RefLinesPE": 94, "RepetitionTime": 1.16, "SAR": 0.103238, "ScanOptions": "FS", "ScanningSequence": "EP", "SequenceName": "epfid2d1_96", "SequenceVariant": "SK", "SeriesDescription": "dots_motion", "SeriesNumber": 12, "ShimSetting": [-2778, 8053, -15401, 170, -169, 161, 279, -47], "SliceThickness": 2, "SliceTiming": [0, 0.5, 0.9975, 0.3575, 0.855, 0.215, 0.7125, 0.0725, 0.57, 1.07, 0.4275, 0.9275, 0.285, 0.785, 0.1425, 0.6425, 0, 0.5, 0.9975, 0.3575, 0.855, 0.215, 0.7125, 0.0725, 0.57, 1.07, 0.4275, 0.9275, 0.285, 0.785, 0.1425, 0.6425, 0, 0.5, 0.9975, 0.3575, 0.855, 0.215, 0.7125, 0.0725, 0.57, 1.07, 0.4275, 0.9275, 0.285, 0.785, 0.1425, 0.6425, 0, 0.5, 0.9975, 0.3575, 0.855, 0.215, 0.7125, 0.0725, 0.57, 1.07, 0.4275, 0.9275, 0.285, 0.785, 0.1425, 0.6425], "SoftwareVersions": "syngo MR D11", "SpacingBetweenSlices": 2.4, "StationName": "AWP45239", "TaskName": "Dot motion stop-signal task", "TotalReadoutTime": 0.0294501, "TxRefAmp": 343.449, "WipMemBlock": "ab44b4bf-337b-4063-8779-0a0d8ddac5f3||Sequence: VD11D r206; Feb 13 2013 18:52:04 by eja", "dcmmeta_affine": [[-2.3958284854888916, 0.0048018950037658215, -4.832212496808097e-08, 118.77759552001953], [0.004239844623953104, 2.1153910160064697, -1.1267317533493042, -85.2388687133789], [0.00225431052967906, 1.1247732639312744, 2.1190741062164307, -79.59710693359375], [0.0, 0.0, 0.0, 1.0]], "dcmmeta_reorient_transform": [[0.0, -1.0, 0.0, 95.0], [1.0, 0.0, 0.0, 0.0], [0.0, 0.0, 1.0, 0.0], [0.0, 0.0, 0.0, 1.0]], "dcmmeta_shape": [96, 96, 64, 372], "dcmmeta_slice_dim": 2, "dcmmeta_version": 0.6, "global": {"const": {"AcquisitionMatrix": [96, 0, 0, 96], "AngioFlag": "N", "BitsAllocated": 16, "BitsStored": 16, "BodyPartExamined": "BRAIN", "Columns": 768, "EchoNumbers": 1, "EchoTime": 30.0, "EchoTrainLength": 48, "FlipAngle": 63.0, "HighBit": 15, "ImageOrientationPatient": [0.99999799145016, -0.0017696742674, 0.00094092966162, 0.00200426935329, 0.88294582641879, -0.4694706066561], "ImagePositionPatient": [-925.84556746504, -825.07005264965, 404.42273676342], "ImageType": ["ORIGINAL", "PRIMARY", "M", "ND", "NORM", "MOSAIC"], "ImagedNucleus": "1H", "ImagingFrequency": 123.193186, "InPlanePhaseEncodingDirection": "COL", "MRAcquisitionType": "2D", "MagneticFieldStrength": 3.0, "Manufacturer": "SIEMENS", "ManufacturerModelName": "Skyra", "Modality": "MR", "NumberOfAverages": 1.0, "NumberOfPhaseEncodingSteps": 96, "PercentPhaseFieldOfView": 100.0, "PercentSampling": 100.0, "PerformedProcedureStepStartTime": "072126.078000", "PhotometricInterpretation": "MONOCHROME2", "PixelBandwidth": 2005.0, "PixelRepresentation": 0, "PixelSpacing": [2.3958332538605, 2.3958332538605], "ProtocolName": "dots_motion", "RepetitionTime": 1160.0, "Rows": 768, "SAR": 0.10323792397848, "SamplesPerPixel": 1, "ScanOptions": "FS", "ScanningSequence": "EP", "SequenceName": "epfid2d1_96", "SequenceVariant": "SK", "SeriesDescription": "dots_motion", "SeriesNumber": 12, "SeriesTime": "075521.453000", "SliceLocation": -30.262850005588, "SliceThickness": 2.0, "SmallestImagePixelValue": 0, "SoftwareVersions": "syngo MR D11", "SpacingBetweenSlices": 2.3999999541751, "SpecificCharacterSet": "ISO_IR 100", "StudyID": "1", "StudyTime": "072125.968000", "TransmitCoilName": "Body", "VariableFlipAngleFlag": "N", "WindowCenterWidthExplanation": "Algo1", "dBdt": 0.0}, "slices": {}}, "time": {"samples": {"AcquisitionNumber": [1, 2, 3, 4, 5, 6, 7, 8, 9, 10, 11, 12, 13, 14, 15, 16, 17, 18, 19, 20, 21, 22, 23, 24, 25, 26, 27, 28, 29, 30, 31, 32, 33, 34, 35, 36, 37, 38, 39, 40, 41, 42, 43, 44, 45, 46, 47, 48, 49, 50, 51, 52, 53, 54, 55, 56, 57, 58, 59, 60, 61, 62, 63, 64, 65, 66, 67, 68, 69, 70, 71, 72, 73, 74, 75, 76, 77, 78, 79, 80, 81, 82, 83, 84, 85, 86, 87, 88, 89, 90, 91, 92, 93, 94, 95, 96, 97, 98, 99, 100, 101, 102, 103, 104, 105, 106, 107, 108, 109, 110, 111, 112, 113, 114, 115, 116, 117, 118, 119, 120, 121, 122, 123, 124, 125, 126, 127, 128, 129, 130, 131, 132, 133, 134, 135, 136, 137, 138, 139, 140, 141, 142, 143, 144, 145, 146, 147, 148, 149, 150, 151, 152, 153, 154, 155, 156, 157, 158, 159, 160, 161, 162, 163, 164, 165, 166, 167, 168, 169, 170, 171, 172, 173, 174, 175, 176, 177, 178, 179, 180, 181, 182, 183, 184, 185, 186, 187, 188, 189, 190, 191, 192, 193, 194, 195, 196, 197, 198, 199, 200, 201, 202, 203, 204, 205, 206, 207, 208, 209, 210, 211, 212, 213, 214, 215, 216, 217, 218, 219, 220, 221, 222, 223, 224, 225, 226, 227, 228, 229, 230, 231, 232, 233, 234, 235, 236, 237, 238, 239, 240, 241, 242, 243, 244, 245, 246, 247, 248, 249, 250, 251, 252, 253, 254, 255, 256, 257, 258, 259, 260, 261, 262, 263, 264, 265, 266, 267, 268, 269, 270, 271, 272, 273, 274, 275, 276, 277, 278, 279, 280, 281, 282, 283, 284, 285, 286, 287, 288, 289, 290, 291, 292, 293, 294, 295, 296, 297, 298, 299, 300, 301, 302, 303, 304, 305, 306, 307, 308, 309, 310, 311, 312, 313, 314, 315, 316, 317, 318, 319, 320, 321, 322, 323, 324, 325, 326, 327, 328, 329, 330, 331, 332, 333, 334, 335, 336, 337, 338, 339, 340, 341, 342, 343, 344, 345, 346, 347, 348, 349, 350, 351, 352, 353, 354, 355, 356, 357, 358, 359, 360, 361, 362, 363, 364, 365, 366, 367, 368, 369, 370, 371, 372], "AcquisitionTime": ["075442.185000", "075511.185000", "075512.345000", "075513.505000", "075514.665000", "075515.825000", "075516.985000", "075518.145000", "075519.305000", "075520.465000", "075521.625000", "075522.785000", "075523.945000", "075525.105000", "075526.265000", "075527.425000", "075528.585000", "075529.745000", "075530.905000", "075532.065000", "075533.225000", "075534.385000", "075535.545000", "075536.705000", "075537.865000", "075539.025000", "075540.185000", "075541.345000", "075542.505000", "075543.665000", "075544.825000", "075545.985000", "075547.145000", "075548.305000", "075549.467500", "075550.627500", "075551.787500", "075552.947500", "075554.107500", "075555.267500", "075556.427500", "075557.587500", "075558.747500", "075559.907500", "075601.067500", "075602.227500", "075603.387500", "075604.547500", "075605.707500", "075606.867500", "075608.027500", "075609.187500", "075610.347500", "075611.507500", "075612.667500", "075613.827500", "075614.987500", "075616.147500", "075617.307500", "075618.467500", "075619.627500", "075620.787500", "075621.947500", "075623.107500", "075624.267500", "075625.427500", "075626.587500", "075627.747500", "075628.907500", "075630.067500", "075631.227500", "075632.387500", "075633.547500", "075634.707500", "075635.867500", "075637.027500", "075638.187500", "075639.347500", "075640.507500", "075641.667500", "075642.827500", "075643.987500", "075645.147500", "075646.307500", "075647.467500", "075648.627500", "075649.787500", "075650.947500", "075652.107500", "075653.267500", "075654.427500", "075655.587500", "075656.747500", "075657.907500", "075659.067500", "075700.227500", "075701.387500", "075702.547500", "075703.707500", "075704.867500", "075706.027500", "075707.187500", "075708.347500", "075709.507500", "075710.667500", "075711.827500", "075712.987500", "075714.147500", "075715.307500", "075716.467500", "075717.627500", "075718.787500", "075719.947500", "075721.107500", "075722.267500", "075723.427500", "075724.587500", "075725.747500", "075726.907500", "075728.067500", "075729.227500", "075730.387500", "075731.547500", "075732.707500", "075733.867500", "075735.027500", "075736.187500", "075737.347500", "075738.507500", "075739.667500", "075740.827500", "075741.987500", "075743.147500", "075744.307500", "075745.467500", "075746.627500", "075747.787500", "075748.947500", "075750.107500", "075751.267500", "075752.427500", "075753.587500", "075754.747500", "075755.907500", "075757.067500", "075758.227500", "075759.387500", "075800.547500", "075801.707500", "075802.867500", "075804.027500", "075805.187500", "075806.347500", "075807.507500", "075808.667500", "075809.827500", "075810.987500", "075812.147500", "075813.307500", "075814.467500", "075815.627500", "075816.787500", "075817.947500", "075819.107500", "075820.267500", "075821.427500", "075822.587500", "075823.747500", "075824.907500", "075826.067500", "075827.227500", "075828.387500", "075829.547500", "075830.707500", "075831.867500", "075833.027500", "075834.187500", "075835.347500", "075836.507500", "075837.667500", "075838.827500", "075839.987500", "075841.147500", "075842.307500", "075843.467500", "075844.627500", "075845.787500", "075846.947500", "075848.107500", "075849.267500", "075850.427500", "075851.587500", "075852.747500", "075853.907500", "075855.067500", "075856.227500", "075857.387500", "075858.547500", "075859.707500", "075900.867500", "075902.027500", "075903.187500", "075904.347500", "075905.507500", "075906.667500", "075907.827500", "075908.987500", "075910.147500", "075911.307500", "075912.467500", "075913.627500", "075914.787500", "075915.947500", "075917.107500", "075918.267500", "075919.427500", "075920.587500", "075921.747500", "075922.907500", "075924.067500", "075925.227500", "075926.387500", "075927.547500", "075928.707500", "075929.867500", "075931.027500", "075932.187500", "075933.347500", "075934.507500", "075935.667500", "075936.827500", "075937.987500", "075939.147500", "075940.307500", "075941.467500", "075942.627500", "075943.787500", "075944.947500", "075946.107500", "075947.267500", "075948.427500", "075949.587500", "075950.747500", "075951.907500", "075953.067500", "075954.227500", "075955.387500", "075956.547500", "075957.707500", "075958.867500", "080000.027500", "080001.187500", "080002.347500", "080003.507500", "080004.667500", "080005.827500", "080006.987500", "080008.147500", "080009.307500", "080010.467500", "080011.627500", "080012.787500", "080013.947500", "080015.107500", "080016.267500", "080017.427500", "080018.587500", "080019.747500", "080020.907500", "080022.067500", "080023.227500", "080024.387500", "080025.547500", "080026.707500", "080027.867500", "080029.027500", "080030.187500", "080031.347500", "080032.507500", "080033.667500", "080034.827500", "080035.987500", "080037.147500", "080038.307500", "080039.467500", "080040.630000", "080041.790000", "080042.950000", "080044.110000", "080045.270000", "080046.430000", "080047.590000", "080048.750000", "080049.910000", "080051.070000", "080052.230000", "080053.390000", "080054.550000", "080055.710000", "080056.870000", "080058.030000", "080059.190000", "080100.350000", "080101.510000", "080102.670000", "080103.830000", "080104.990000", "080106.150000", "080107.310000", "080108.470000", "080109.630000", "080110.790000", "080111.950000", "080113.110000", "080114.270000", "080115.430000", "080116.590000", "080117.750000", "080118.910000", "080120.070000", "080121.230000", "080122.390000", "080123.550000", "080124.710000", "080125.870000", "080127.030000", "080128.190000", "080129.350000", "080130.510000", "080131.670000", "080132.830000", "080133.990000", "080135.150000", "080136.310000", "080137.470000", "080138.630000", "080139.790000", "080140.950000", "080142.110000", "080143.270000", "080144.430000", "080145.590000", "080146.750000", "080147.910000", "080149.070000", "080150.230000", "080151.390000", "080152.550000", "080153.710000", "080154.870000", "080156.030000", "080157.190000", "080158.350000", "080159.510000", "080200.670000", "080201.830000", "080202.990000", "080204.150000", "080205.310000", "080206.470000", "080207.630000", "080208.790000", "080209.950000", "080211.110000", "080212.270000", "080213.430000", "080214.590000", "080215.750000", "080216.910000", "080218.070000", "080219.230000", "080220.390000"], "ContentTime": ["075521.453000", "075526.265000", "075526.265000", "075526.265000", "075526.265000", "075531.265000", "075531.265000", "075531.281000", "075531.281000", "075536.265000", "075536.265000", "075536.265000", "075536.281000", "075541.265000", "075541.265000", "075541.265000", "075546.265000", "075546.265000", "075546.265000", "075546.265000", "075551.265000", "075551.265000", "075551.265000", "075556.265000", "075556.265000", "075556.265000", "075556.265000", "075601.265000", "075601.265000", "075601.265000", "075601.265000", "075606.265000", "075606.265000", "075606.265000", "075606.265000", "075611.265000", "075611.265000", "075611.265000", "075611.265000", "075616.265000", "075616.265000", "075616.265000", "075621.265000", "075621.265000", "075621.265000", "075621.281000", "075626.265000", "075626.265000", "075626.281000", "075626.281000", "075631.265000", "075631.265000", "075631.265000", "075636.265000", "075636.265000", "075636.265000", "075636.265000", "075641.265000", "075641.281000", "075641.281000", "075641.281000", "075646.265000", "075646.281000", "075646.281000", "075646.281000", "075651.265000", "075651.265000", "075651.265000", "075656.265000", "075656.265000", "075656.265000", "075656.265000", "075701.265000", "075701.265000", "075701.265000", "075701.265000", "075706.265000", "075706.265000", "075706.281000", "075711.265000", "075711.265000", "075711.265000", "075711.265000", "075716.265000", "075716.265000", "075716.265000", "075716.265000", "075721.265000", "075721.265000", "075721.265000", "075721.265000", "075726.265000", "075726.265000", "075726.281000", "075726.281000", "075731.265000", "075731.265000", "075731.281000", "075736.265000", "075736.265000", "075736.265000", "075736.265000", "075741.265000", "075741.265000", "075741.265000", "075741.281000", "075746.265000", "075746.265000", "075746.265000", "075746.281000", "075751.265000", "075751.265000", "075751.265000", "075751.265000", "075756.265000", "075756.265000", "075756.265000", "075801.265000", "075801.265000", "075801.265000", "075801.265000", "075806.265000", "075806.265000", "075806.281000", "075806.281000", "075811.265000", "075811.265000", "075811.265000", "075811.265000", "075816.265000", "075816.296000", "075816.296000", "075816.296000", "075821.265000", "075821.265000", "075821.265000", "075821.265000", "075826.265000", "075826.265000", "075826.265000", "075831.265000", "075831.265000", "075831.265000", "075831.265000", "075836.265000", "075836.265000", "075836.265000", "075836.281000", "075841.265000", "075841.265000", "075841.281000", "075841.281000", "075846.265000", "075846.265000", "075846.265000", "075846.265000", "075851.265000", "075851.265000", "075851.265000", "075851.281000", "075856.265000", "075856.265000", "075856.265000", "075856.265000", "075901.265000", "075901.265000", "075901.265000", "075901.265000", "075906.265000", "075906.265000", "075906.265000", "075911.265000", "075911.281000", "075911.281000", "075911.281000", "075911.296000", "075916.265000", "075916.265000", "075916.265000", "075921.265000", "075921.265000", "075921.265000", "075921.281000", "075926.265000", "075926.265000", "075926.265000", "075926.265000", "075931.265000", "075931.265000", "075931.265000", "075931.265000", "075936.265000", "075936.265000", "075936.265000", "075941.265000", "075941.265000", "075941.281000", "075941.281000", "075946.265000", "075946.265000", "075946.265000", "075946.265000", "075951.265000", "075951.265000", "075951.265000", "075956.265000", "075956.265000", "075956.265000", "075956.265000", "080001.265000", "080001.265000", "080001.265000", "080001.265000", "080006.265000", "080006.265000", "080006.265000", "080006.281000", "080011.265000", "080011.265000", "080011.281000", "080011.281000", "080016.265000", "080016.265000", "080016.265000", "080021.265000", "080021.265000", "080021.265000", "080021.281000", "080026.265000", "080026.265000", "080026.265000", "080026.281000", "080031.265000", "080031.281000", "080031.281000", "080036.265000", "080036.265000", "080036.265000", "080036.265000", "080041.265000", "080041.265000", "080041.265000", "080041.265000", "080046.265000", "080046.265000", "080046.265000", "080046.281000", "080051.265000", "080051.265000", "080051.265000", "080056.265000", "080056.265000", "080056.281000", "080056.281000", "080101.265000", "080101.265000", "080101.265000", "080101.265000", "080106.265000", "080106.265000", "080106.265000", "080111.265000", "080111.265000", "080111.265000", "080111.265000", "080116.265000", "080116.265000", "080116.265000", "080116.265000", "080121.265000", "080121.265000", "080121.281000", "080121.281000", "080126.265000", "080126.265000", "080126.265000", "080126.265000", "080131.265000", "080131.265000", "080131.265000", "080136.265000", "080136.265000", "080136.265000", "080136.265000", "080141.265000", "080141.265000", "080141.265000", "080141.281000", "080146.265000", "080146.265000", "080146.281000", "080146.281000", "080151.265000", "080151.265000", "080151.265000", "080151.265000", "080156.265000", "080156.265000", "080156.265000", "080201.265000", "080201.265000", "080201.265000", "080201.265000", "080206.265000", "080206.296000", "080206.296000", "080206.296000", "080211.265000", "080211.265000", "080211.265000", "080211.281000", "080216.265000", "080216.265000", "080216.265000", "080216.265000", "080221.265000", "080221.265000", "080221.265000", "080226.265000", "080226.265000", "080226.265000", "080226.265000", "080231.265000", "080231.265000", "080231.265000", "080231.265000", "080236.265000", "080236.265000", "080236.265000", "080236.265000", "080241.265000", "080241.265000", "080241.265000", "080241.265000", "080241.281000", "080246.265000", "080246.265000", "080246.265000", "080251.265000", "080251.265000", "080251.281000", "080251.281000", "080256.265000", "080256.265000", "080256.265000", "080256.265000", "080301.265000", "080301.265000", "080301.265000", "080301.265000", "080306.265000", "080306.265000", "080306.265000", "080306.265000", "080311.265000", "080311.265000", "080311.265000", "080311.265000", "080316.265000", "080316.265000", "080316.265000", "080316.265000", "080321.265000", "080321.265000", "080321.265000", "080321.265000", "080326.265000", "080326.265000", "080326.265000", "080326.265000", "080327.593000", "080327.593000"], "InstanceCreationTime": ["075521.453000", "075526.265000", "075526.265000", "075526.265000", "075526.265000", "075531.265000", "075531.265000", "075531.281000", "075531.281000", "075536.265000", "075536.265000", "075536.265000", "075536.281000", "075541.265000", "075541.265000", "075541.265000", "075546.265000", "075546.265000", "075546.265000", "075546.265000", "075551.265000", "075551.265000", "075551.265000", "075556.265000", "075556.265000", "075556.265000", "075556.265000", "075601.265000", "075601.265000", "075601.265000", "075601.265000", "075606.265000", "075606.265000", "075606.265000", "075606.265000", "075611.265000", "075611.265000", "075611.265000", "075611.265000", "075616.265000", "075616.265000", "075616.265000", "075621.265000", "075621.265000", "075621.265000", "075621.281000", "075626.265000", "075626.265000", "075626.281000", "075626.281000", "075631.265000", "075631.265000", "075631.265000", "075636.265000", "075636.265000", "075636.265000", "075636.265000", "075641.265000", "075641.281000", "075641.281000", "075641.281000", "075646.265000", "075646.281000", "075646.281000", "075646.281000", "075651.265000", "075651.265000", "075651.265000", "075656.265000", "075656.265000", "075656.265000", "075656.265000", "075701.265000", "075701.265000", "075701.265000", "075701.265000", "075706.265000", "075706.265000", "075706.281000", "075711.265000", "075711.265000", "075711.265000", "075711.265000", "075716.265000", "075716.265000", "075716.265000", "075716.265000", "075721.265000", "075721.265000", "075721.265000", "075721.265000", "075726.265000", "075726.265000", "075726.281000", "075726.281000", "075731.265000", "075731.265000", "075731.281000", "075736.265000", "075736.265000", "075736.265000", "075736.265000", "075741.265000", "075741.265000", "075741.265000", "075741.281000", "075746.265000", "075746.265000", "075746.265000", "075746.281000", "075751.265000", "075751.265000", "075751.265000", "075751.265000", "075756.265000", "075756.265000", "075756.265000", "075801.265000", "075801.265000", "075801.265000", "075801.265000", "075806.265000", "075806.265000", "075806.281000", "075806.281000", "075811.265000", "075811.265000", "075811.265000", "075811.265000", "075816.265000", "075816.296000", "075816.296000", "075816.296000", "075821.265000", "075821.265000", "075821.265000", "075821.265000", "075826.265000", "075826.265000", "075826.265000", "075831.265000", "075831.265000", "075831.265000", "075831.265000", "075836.265000", "075836.265000", "075836.265000", "075836.281000", "075841.265000", "075841.265000", "075841.281000", "075841.281000", "075846.265000", "075846.265000", "075846.265000", "075846.265000", "075851.265000", "075851.265000", "075851.265000", "075851.281000", "075856.265000", "075856.265000", "075856.265000", "075856.265000", "075901.265000", "075901.265000", "075901.265000", "075901.265000", "075906.265000", "075906.265000", "075906.265000", "075911.265000", "075911.281000", "075911.281000", "075911.281000", "075911.296000", "075916.265000", "075916.265000", "075916.265000", "075921.265000", "075921.265000", "075921.265000", "075921.281000", "075926.265000", "075926.265000", "075926.265000", "075926.265000", "075931.265000", "075931.265000", "075931.265000", "075931.265000", "075936.265000", "075936.265000", "075936.265000", "075941.265000", "075941.265000", "075941.281000", "075941.281000", "075946.265000", "075946.265000", "075946.265000", "075946.265000", "075951.265000", "075951.265000", "075951.265000", "075956.265000", "075956.265000", "075956.265000", "075956.265000", "080001.265000", "080001.265000", "080001.265000", "080001.265000", "080006.265000", "080006.265000", "080006.265000", "080006.281000", "080011.265000", "080011.265000", "080011.281000", "080011.281000", "080016.265000", "080016.265000", "080016.265000", "080021.265000", "080021.265000", "080021.265000", "080021.281000", "080026.265000", "080026.265000", "080026.265000", "080026.281000", "080031.265000", "080031.281000", "080031.281000", "080036.265000", "080036.265000", "080036.265000", "080036.265000", "080041.265000", "080041.265000", "080041.265000", "080041.265000", "080046.265000", "080046.265000", "080046.265000", "080046.281000", "080051.265000", "080051.265000", "080051.265000", "080056.265000", "080056.265000", "080056.281000", "080056.281000", "080101.265000", "080101.265000", "080101.265000", "080101.265000", "080106.265000", "080106.265000", "080106.265000", "080111.265000", "080111.265000", "080111.265000", "080111.265000", "080116.265000", "080116.265000", "080116.265000", "080116.265000", "080121.265000", "080121.265000", "080121.281000", "080121.281000", "080126.265000", "080126.265000", "080126.265000", "080126.265000", "080131.265000", "080131.265000", "080131.265000", "080136.265000", "080136.265000", "080136.265000", "080136.265000", "080141.265000", "080141.265000", "080141.265000", "080141.281000", "080146.265000", "080146.265000", "080146.281000", "080146.281000", "080151.265000", "080151.265000", "080151.265000", "080151.265000", "080156.265000", "080156.265000", "080156.265000", "080201.265000", "080201.265000", "080201.265000", "080201.265000", "080206.265000", "080206.296000", "080206.296000", "080206.296000", "080211.265000", "080211.265000", "080211.265000", "080211.281000", "080216.265000", "080216.265000", "080216.265000", "080216.265000", "080221.265000", "080221.265000", "080221.265000", "080226.265000", "080226.265000", "080226.265000", "080226.265000", "080231.265000", "080231.265000", "080231.265000", "080231.265000", "080236.265000", "080236.265000", "080236.265000", "080236.265000", "080241.265000", "080241.265000", "080241.265000", "080241.265000", "080241.281000", "080246.265000", "080246.265000", "080246.265000", "080251.265000", "080251.265000", "080251.281000", "080251.281000", "080256.265000", "080256.265000", "080256.265000", "080256.265000", "080301.265000", "080301.265000", "080301.265000", "080301.265000", "080306.265000", "080306.265000", "080306.265000", "080306.265000", "080311.265000", "080311.265000", "080311.265000", "080311.265000", "080316.265000", "080316.265000", "080316.265000", "080316.265000", "080321.265000", "080321.265000", "080321.265000", "080321.265000", "080326.265000", "080326.265000", "080326.265000", "080326.265000", "080327.593000", "080327.593000"], "InstanceNumber": [1, 2, 3, 4, 5, 6, 7, 8, 9, 10, 11, 12, 13, 14, 15, 16, 17, 18, 19, 20, 21, 22, 23, 24, 25, 26, 27, 28, 29, 30, 31, 32, 33, 34, 35, 36, 37, 38, 39, 40, 41, 42, 43, 44, 45, 46, 47, 48, 49, 50, 51, 52, 53, 54, 55, 56, 57, 58, 59, 60, 61, 62, 63, 64, 65, 66, 67, 68, 69, 70, 71, 72, 73, 74, 75, 76, 77, 78, 79, 80, 81, 82, 83, 84, 85, 86, 87, 88, 89, 90, 91, 92, 93, 94, 95, 96, 97, 98, 99, 100, 101, 102, 103, 104, 105, 106, 107, 108, 109, 110, 111, 112, 113, 114, 115, 116, 117, 118, 119, 120, 121, 122, 123, 124, 125, 126, 127, 128, 129, 130, 131, 132, 133, 134, 135, 136, 137, 138, 139, 140, 141, 142, 143, 144, 145, 146, 147, 148, 149, 150, 151, 152, 153, 154, 155, 156, 157, 158, 159, 160, 161, 162, 163, 164, 165, 166, 167, 168, 169, 170, 171, 172, 173, 174, 175, 176, 177, 178, 179, 180, 181, 182, 183, 184, 185, 186, 187, 188, 189, 190, 191, 192, 193, 194, 195, 196, 197, 198, 199, 200, 201, 202, 203, 204, 205, 206, 207, 208, 209, 210, 211, 212, 213, 214, 215, 216, 217, 218, 219, 220, 221, 222, 223, 224, 225, 226, 227, 228, 229, 230, 231, 232, 233, 234, 235, 236, 237, 238, 239, 240, 241, 242, 243, 244, 245, 246, 247, 248, 249, 250, 251, 252, 253, 254, 255, 256, 257, 258, 259, 260, 261, 262, 263, 264, 265, 266, 267, 268, 269, 270, 271, 272, 273, 274, 275, 276, 277, 278, 279, 280, 281, 282, 283, 284, 285, 286, 287, 288, 289, 290, 291, 292, 293, 294, 295, 296, 297, 298, 299, 300, 301, 302, 303, 304, 305, 306, 307, 308, 309, 310, 311, 312, 313, 314, 315, 316, 317, 318, 319, 320, 321, 322, 323, 324, 325, 326, 327, 328, 329, 330, 331, 332, 333, 334, 335, 336, 337, 338, 339, 340, 341, 342, 343, 344, 345, 346, 347, 348, 349, 350, 351, 352, 353, 354, 355, 356, 357, 358, 359, 360, 361, 362, 363, 364, 365, 366, 367, 368, 369, 370, 371, 372], "LargestImagePixelValue": [29685, 31365, 36241, 35159, 34127, 33754, 32334, 32533, 35975, 30797, 32881, 30477, 29914, 36379, 37053, 33230, 29583, 28734, 35539, 37599, 30345, 33602, 33825, 32871, 38536, 36044, 32946, 34215, 33192, 31231, 35776, 33503, 33585, 34517, 32324, 32238, 31470, 33004, 33458, 29731, 29972, 29839, 28521, 36769, 33354, 32730, 32516, 31413, 32140, 31960, 29924, 28300, 28635, 34171, 35567, 30706, 29508, 29946, 28505, 30988, 36096, 35192, 32195, 32620, 32274, 32287, 31875, 30574, 28547, 34779, 35847, 30154, 32890, 31861, 33650, 31351, 30103, 35819, 35389, 31845, 32876, 31428, 33702, 32311, 37106, 32283, 33909, 32516, 30512, 34954, 32172, 32987, 30346, 29585, 38136, 32505, 35392, 30508, 31314, 35947, 34645, 33383, 35024, 33810, 28415, 36263, 32396, 33376, 32293, 35601, 38259, 33481, 33087, 32920, 28850, 32838, 33088, 31974, 31764, 28332, 34311, 31861, 33078, 31604, 28336, 35337, 31607, 33733, 32757, 28330, 33502, 31497, 32943, 31224, 33381, 32704, 34144, 33063, 34944, 34229, 34145, 33497, 34094, 29389, 37782, 31206, 28740, 28397, 37930, 31054, 35199, 28360, 33287, 30949, 33911, 28297, 33002, 34056, 30682, 31044, 28590, 36685, 30368, 30747, 32752, 28918, 37038, 30053, 32949, 30825, 28468, 34385, 29719, 33591, 28467, 28435, 35813, 30431, 33700, 28192, 31069, 34764, 30416, 33966, 30497, 28428, 30435, 32518, 28574, 28543, 35101, 33831, 33430, 35429, 31611, 33866, 32670, 28651, 28706, 31997, 34101, 34473, 32086, 33236, 37314, 28905, 35521, 28842, 29851, 29348, 32739, 28697, 35861, 31140, 32895, 32729, 28661, 28744, 37732, 31290, 33331, 31675, 28687, 34905, 31813, 33225, 32495, 34087, 30555, 28547, 30249, 30005, 33481, 32022, 30307, 30052, 36141, 30788, 34146, 28761, 28557, 34339, 32328, 35508, 29693, 28612, 28828, 35859, 30788, 31623, 33394, 28807, 28612, 37023, 30092, 33660, 29932, 28808, 33683, 36060, 29468, 33888, 28733, 28828, 30001, 31581, 33554, 28531, 28735, 29752, 33646, 28733, 36425, 32178, 33098, 33489, 29816, 30660, 32402, 33469, 31279, 28666, 30989, 30931, 28697, 34287, 30999, 34347, 32950, 28755, 28818, 29127, 34565, 28700, 31292, 36508, 30084, 28723, 29718, 36805, 30619, 34410, 29249, 28738, 38048, 33405, 28720, 28526, 29930, 34317, 29114, 29535, 34192, 28585, 31030, 29434, 33909, 30097, 32034, 36930, 33330, 33561, 28375, 29351, 28636, 33345, 33431, 28602, 30865, 29053, 34030, 28552, 28552, 33752, 29872, 34935, 34257, 28648, 29902, 34544, 37050, 31155, 33971, 34070, 29269, 28598, 37527, 33647, 33426, 33030, 2867