{"AcquisitionMatrixPE": 96, "AcquisitionNumber": 1, "AcquisitionTime": "07:45:19.507500", "BandwidthPerPixelPhaseEncode": 33.602, "BaseResolution": 96, "BodyPartExamined": "BRAIN", "ConsistencyInfo": "N4_VD11D_LATEST_20110129", "ConversionSoftware": "dcm2niix", "ConversionSoftwareVersion": "v1.0.20210317", "DerivedVendorReportedEchoSpacing": 0.000620003, "DeviceSerialNumber": "45239", "DwellTime": 2.6e-06, "EchoTime": 0.03, "EchoTrainLength": 48, "EffectiveEchoSpacing": 0.000310001, "FlipAngle": 63, "ImageComments": "Unaliased MB4/PE3", "ImageOrientationPatientDICOM": [0.999997, -0.000559364, 0.00226189, 0.00154363, 0.886204, -0.463293], "ImageType": ["ORIGINAL", "PRIMARY", "M", "ND", "NORM", "MOSAIC"], "ImagingFrequency": 123.193, "InPlanePhaseEncodingDirectionDICOM": "COL", "InstitutionAddress": "E 24th St. 100,Austin,Southmiddle,US,78712", "InstitutionName": "Univ of Texas at Austin", "InstitutionalDepartmentName": "IRC", "MRAcquisitionType": "2D", "MagneticFieldStrength": 3, "Manufacturer": "Siemens", "ManufacturersModelName": "Skyra", "Modality": "MR", "MultibandAccelerationFactor": 4, "ParallelReductionFactorInPlane": 2, "PartialFourier": 1, "PatientPosition": "HFS", "PercentPhaseFOV": 100, "PercentSampling": 100, "PhaseEncodingDirection": "j-", "PhaseEncodingSteps": 96, "PhaseResolution": 1, "PixelBandwidth": 2005, "ProcedureStepDescription": "Poldrack2^self-scanning", "ProtocolName": "Breath_Hold", "PulseSequenceDetails": "%CustomerSeq%\\cmrr_mbep2d_bold", "ReceiveCoilActiveElements": "HEA;HEP", "ReceiveCoilName": "Head_32", "ReconMatrixPE": 96, "RefLinesPE": 94, "RepetitionTime": 1.16, "SAR": 0.0938311, "ScanOptions": "FS", "ScanningSequence": "EP", "SequenceName": "epfid2d1_96", "SequenceVariant": "SK", "SeriesDescription": "Breath_Hold", "SeriesNumber": 8, "ShimSetting": [-2811, 7978, -15423, 199, -259, -46, 308, -86], "SliceThickness": 2, "SliceTiming": [0, 0.5, 0.9975, 0.3575, 0.855, 0.215, 0.7125, 0.0725, 0.57, 1.07, 0.4275, 0.9275, 0.285, 0.785, 0.1425, 0.6425, 0, 0.5, 0.9975, 0.3575, 0.855, 0.215, 0.7125, 0.0725, 0.57, 1.07, 0.4275, 0.9275, 0.285, 0.785, 0.1425, 0.6425, 0, 0.5, 0.9975, 0.3575, 0.855, 0.215, 0.7125, 0.0725, 0.57, 1.07, 0.4275, 0.9275, 0.285, 0.785, 0.1425, 0.6425, 0, 0.5, 0.9975, 0.3575, 0.855, 0.215, 0.7125, 0.0725, 0.57, 1.07, 0.4275, 0.9275, 0.285, 0.785, 0.1425, 0.6425], "SoftwareVersions": "syngo MR D11", "SpacingBetweenSlices": 2.4, "StationName": "AWP45239", "TaskName": "Breath holding task", "TotalReadoutTime": 0.0294501, "TxRefAmp": 334.309, "WipMemBlock": "e876ac50-3ce6-49bc-b03d-bd229c1dd427||Sequence: VD11D r206; Feb 13 2013 18:52:04 by eja", "dcmmeta_affine": [[-2.395826816558838, 0.0036982835736125708, 0.004188827238976955, 118.44811248779297], [0.0013401418691501021, 2.123196601867676, -1.1119087934494019, -79.45734405517578], [0.005419107154011726, 1.1099729537963867, 2.126885414123535, -76.36090087890625], [0.0, 0.0, 0.0, 1.0]], "dcmmeta_reorient_transform": [[0.0, -1.0, 0.0, 95.0], [1.0, 0.0, 0.0, 0.0], [0.0, 0.0, 1.0, 0.0], [0.0, 0.0, 0.0, 1.0]], "dcmmeta_shape": [96, 96, 64, 318], "dcmmeta_slice_dim": 2, "dcmmeta_version": 0.6, "global": {"const": {"AcquisitionMatrix": [96, 0, 0, 96], "AngioFlag": "N", "BitsAllocated": 16, "BitsStored": 16, "BodyPartExamined": "BRAIN", "Columns": 768, "EchoNumbers": 1, "EchoTime": 30.0, "EchoTrainLength": 48, "FlipAngle": 63.0, "HighBit": 15, "ImageOrientationPatient": [0.99999728548321, -0.0005593635795, 0.00226188827969, 0.0015436314887, 0.88620378177291, -0.4632930761119], "ImagePositionPatient": [-925.03985812287, -835.19005641441, 400.21662040173], "ImageType": ["ORIGINAL", "PRIMARY", "M", "ND", "NORM", "MOSAIC"], "ImagedNucleus": "1H", "ImagingFrequency": 123.193203, "InPlanePhaseEncodingDirection": "COL", "MRAcquisitionType": "2D", "MagneticFieldStrength": 3.0, "Manufacturer": "SIEMENS", "ManufacturerModelName": "Skyra", "Modality": "MR", "NumberOfAverages": 1.0, "NumberOfPhaseEncodingSteps": 96, "PercentPhaseFieldOfView": 100.0, "PercentSampling": 100.0, "PerformedProcedureStepStartTime": "072317.093000", "PhotometricInterpretation": "MONOCHROME2", "PixelBandwidth": 2005.0, "PixelRepresentation": 0, "PixelSpacing": [2.3958332538605, 2.3958332538605], "ProtocolName": "Breath_Hold", "RepetitionTime": 1160.0, "Rows": 768, "SAR": 0.09383106373032, "SamplesPerPixel": 1, "ScanOptions": "FS", "ScanningSequence": "EP", "SequenceName": "epfid2d1_96", "SequenceVariant": "SK", "SeriesDescription": "Breath_Hold", "SeriesNumber": 8, "SeriesTime": "074557.609000", "SliceLocation": -30.652257391269, "SliceThickness": 2.0, "SmallestImagePixelValue": 0, "SoftwareVersions": "syngo MR D11", "SpacingBetweenSlices": 2.4000000361328, "SpecificCharacterSet": "ISO_IR 100", "StudyID": "1", "StudyTime": "072316.953000", "TransmitCoilName": "Body", "VariableFlipAngleFlag": "N", "WindowCenterWidthExplanation": "Algo1", "dBdt": 0.0}, "slices": {}}, "time": {"samples": {"AcquisitionNumber": [1, 2, 3, 4, 5, 6, 7, 8, 9, 10, 11, 12, 13, 14, 15, 16, 17, 18, 19, 20, 21, 22, 23, 24, 25, 26, 27, 28, 29, 30, 31, 32, 33, 34, 35, 36, 37, 38, 39, 40, 41, 42, 43, 44, 45, 46, 47, 48, 49, 50, 51, 52, 53, 54, 55, 56, 57, 58, 59, 60, 61, 62, 63, 64, 65, 66, 67, 68, 69, 70, 71, 72, 73, 74, 75, 76, 77, 78, 79, 80, 81, 82, 83, 84, 85, 86, 87, 88, 89, 90, 91, 92, 93, 94, 95, 96, 97, 98, 99, 100, 101, 102, 103, 104, 105, 106, 107, 108, 109, 110, 111, 112, 113, 114, 115, 116, 117, 118, 119, 120, 121, 122, 123, 124, 125, 126, 127, 128, 129, 130, 131, 132, 133, 134, 135, 136, 137, 138, 139, 140, 141, 142, 143, 144, 145, 146, 147, 148, 149, 150, 151, 152, 153, 154, 155, 156, 157, 158, 159, 160, 161, 162, 163, 164, 165, 166, 167, 168, 169, 170, 171, 172, 173, 174, 175, 176, 177, 178, 179, 180, 181, 182, 183, 184, 185, 186, 187, 188, 189, 190, 191, 192, 193, 194, 195, 196, 197, 198, 199, 200, 201, 202, 203, 204, 205, 206, 207, 208, 209, 210, 211, 212, 213, 214, 215, 216, 217, 218, 219, 220, 221, 222, 223, 224, 225, 226, 227, 228, 229, 230, 231, 232, 233, 234, 235, 236, 237, 238, 239, 240, 241, 242, 243, 244, 245, 246, 247, 248, 249, 250, 251, 252, 253, 254, 255, 256, 257, 258, 259, 260, 261, 262, 263, 264, 265, 266, 267, 268, 269, 270, 271, 272, 273, 274, 275, 276, 277, 278, 279, 280, 281, 282, 283, 284, 285, 286, 287, 288, 289, 290, 291, 292, 293, 294, 295, 296, 297, 298, 299, 300, 301, 302, 303, 304, 305, 306, 307, 308, 309, 310, 311, 312, 313, 314, 315, 316, 317, 318], "AcquisitionTime": ["074519.507500", "074548.505000", "074549.665000", "074550.825000", "074551.985000", "074553.145000", "074554.305000", "074555.465000", "074556.625000", "074557.785000", "074558.945000", "074600.105000", "074601.265000", "074602.425000", "074603.585000", "074604.745000", "074605.905000", "074607.065000", "074608.225000", "074609.385000", "074610.545000", "074611.705000", "074612.865000", "074614.025000", "074615.185000", "074616.345000", "074617.505000", "074618.665000", "074619.827500", "074620.987500", "074622.147500", "074623.307500", "074624.467500", "074625.627500", "074626.787500", "074627.947500", "074629.107500", "074630.267500", "074631.427500", "074632.587500", "074633.747500", "074634.907500", "074636.067500", "074637.227500", "074638.387500", "074639.547500", "074640.707500", "074641.867500", "074643.027500", "074644.187500", "074645.347500", "074646.507500", "074647.667500", "074648.827500", "074649.987500", "074651.147500", "074652.307500", "074653.467500", "074654.627500", "074655.787500", "074656.947500", "074658.107500", "074659.267500", "074700.427500", "074701.587500", "074702.747500", "074703.907500", "074705.067500", "074706.227500", "074707.387500", "074708.547500", "074709.707500", "074710.867500", "074712.027500", "074713.187500", "074714.347500", "074715.507500", "074716.667500", "074717.827500", "074718.987500", "074720.147500", "074721.307500", "074722.467500", "074723.627500", "074724.787500", "074725.947500", "074727.107500", "074728.267500", "074729.427500", "074730.587500", "074731.747500", "074732.907500", "074734.067500", "074735.227500", "074736.387500", "074737.547500", "074738.707500", "074739.867500", "074741.027500", "074742.187500", "074743.347500", "074744.507500", "074745.667500", "074746.827500", "074747.987500", "074749.147500", "074750.307500", "074751.467500", "074752.627500", "074753.787500", "074754.947500", "074756.107500", "074757.267500", "074758.427500", "074759.587500", "074800.747500", "074801.907500", "074803.067500", "074804.227500", "074805.387500", "074806.547500", "074807.707500", "074808.867500", "074810.027500", "074811.187500", "074812.347500", "074813.507500", "074814.667500", "074815.827500", "074816.987500", "074818.147500", "074819.307500", "074820.467500", "074821.627500", "074822.787500", "074823.947500", "074825.107500", "074826.267500", "074827.427500", "074828.587500", "074829.747500", "074830.907500", "074832.067500", "074833.227500", "074834.387500", "074835.547500", "074836.707500", "074837.867500", "074839.027500", "074840.187500", "074841.347500", "074842.507500", "074843.667500", "074844.827500", "074845.987500", "074847.147500", "074848.307500", "074849.467500", "074850.627500", "074851.787500", "074852.947500", "074854.107500", "074855.267500", "074856.427500", "074857.587500", "074858.747500", "074859.907500", "074901.067500", "074902.227500", "074903.387500", "074904.547500", "074905.707500", "074906.867500", "074908.027500", "074909.187500", "074910.347500", "074911.507500", "074912.667500", "074913.827500", "074914.987500", "074916.147500", "074917.307500", "074918.467500", "074919.627500", "074920.787500", "074921.947500", "074923.107500", "074924.267500", "074925.427500", "074926.587500", "074927.747500", "074928.907500", "074930.067500", "074931.227500", "074932.387500", "074933.547500", "074934.707500", "074935.867500", "074937.027500", "074938.187500", "074939.347500", "074940.507500", "074941.667500", "074942.827500", "074943.987500", "074945.147500", "074946.307500", "074947.467500", "074948.627500", "074949.787500", "074950.947500", "074952.107500", "074953.267500", "074954.427500", "074955.587500", "074956.747500", "074957.907500", "074959.067500", "075000.227500", "075001.387500", "075002.547500", "075003.707500", "075004.867500", "075006.027500", "075007.187500", "075008.347500", "075009.507500", "075010.667500", "075011.827500", "075012.987500", "075014.147500", "075015.307500", "075016.467500", "075017.627500", "075018.787500", "075019.947500", "075021.107500", "075022.267500", "075023.427500", "075024.587500", "075025.747500", "075026.907500", "075028.067500", "075029.227500", "075030.387500", "075031.547500", "075032.707500", "075033.867500", "075035.027500", "075036.187500", "075037.347500", "075038.507500", "075039.667500", "075040.827500", "075041.987500", "075043.147500", "075044.307500", "075045.467500", "075046.627500", "075047.787500", "075048.947500", "075050.107500", "075051.267500", "075052.427500", "075053.587500", "075054.747500", "075055.907500", "075057.067500", "075058.227500", "075059.387500", "075100.547500", "075101.707500", "075102.867500", "075104.027500", "075105.187500", "075106.347500", "075107.507500", "075108.667500", "075109.830000", "075110.990000", "075112.150000", "075113.310000", "075114.470000", "075115.630000", "075116.790000", "075117.950000", "075119.110000", "075120.270000", "075121.430000", "075122.590000", "075123.750000", "075124.910000", "075126.070000", "075127.230000", "075128.390000", "075129.550000", "075130.710000", "075131.870000", "075133.030000", "075134.190000", "075135.350000", "075136.510000", "075137.670000", "075138.830000", "075139.990000", "075141.150000", "075142.310000", "075143.470000", "075144.630000", "075145.790000", "075146.950000", "075148.110000", "075149.270000", "075150.430000", "075151.590000", "075152.750000", "075153.910000", "075155.070000"], "ContentTime": ["074557.609000", "074605.312000", "074605.312000", "074605.312000", "074605.328000", "074605.328000", "074605.328000", "074605.328000", "074615.312000", "074615.312000", "074615.312000", "074615.312000", "074615.328000", "074615.328000", "074615.328000", "074620.312000", "074620.312000", "074620.312000", "074620.312000", "074625.312000", "074625.312000", "074625.312000", "074625.312000", "074630.312000", "074630.312000", "074630.328000", "074635.312000", "074635.312000", "074635.312000", "074635.312000", "074640.312000", "074640.312000", "074640.312000", "074645.312000", "074645.312000", "074645.328000", "074645.328000", "074650.312000", "074650.312000", "074650.312000", "074650.312000", "074655.312000", "074655.343000", "074655.343000", "074655.343000", "074700.312000", "074700.312000", "074700.312000", "074700.312000", "074705.312000", "074705.312000", "074705.312000", "074710.312000", "074710.312000", "074710.312000", "074710.312000", "074710.312000", "074715.312000", "074715.312000", "074715.312000", "074720.312000", "074720.312000", "074720.312000", "074720.312000", "074725.312000", "074725.312000", "074725.312000", "074725.312000", "074730.312000", "074730.312000", "074730.312000", "074735.312000", "074735.312000", "074735.328000", "074735.328000", "074740.312000", "074740.312000", "074740.312000", "074740.328000", "074745.312000", "074745.312000", "074745.312000", "074750.312000", "074750.312000", "074750.312000", "074750.312000", "074755.312000", "074755.328000", "074755.328000", "074755.343000", "074800.312000", "074800.312000", "074800.312000", "074805.312000", "074805.312000", "074805.312000", "074805.312000", "074810.312000", "074810.312000", "074810.312000", "074810.312000", "074815.312000", "074815.312000", "074815.312000", "074815.312000", "074820.312000", "074820.312000", "074820.312000", "074820.312000", "074825.312000", "074825.312000", "074825.312000", "074830.312000", "074830.312000", "074830.312000", "074830.328000", "074835.312000", "074835.312000", "074835.312000", "074840.312000", "074840.312000", "074840.312000", "074840.312000", "074845.312000", "074845.312000", "074845.312000", "074845.312000", "074850.312000", "074850.312000", "074850.312000", "074850.312000", "074855.312000", "074855.312000", "074855.312000", "074900.312000", "074900.312000", "074900.312000", "074900.312000", "074905.312000", "074905.312000", "074905.312000", "074905.328000", "074910.312000", "074910.312000", "074910.312000", "074910.312000", "074915.312000", "074915.312000", "074915.312000", "074920.312000", "074920.312000", "074920.328000", "074920.328000", "074925.312000", "074925.312000", "074925.328000", "074925.328000", "074930.312000", "074930.312000", "074930.328000", "074930.328000", "074935.312000", "074935.312000", "074935.312000", "074935.312000", "074940.312000", "074940.312000", "074940.312000", "074940.312000", "074945.312000", "074945.312000", "074945.312000", "074950.312000", "074950.312000", "074950.312000", "074950.312000", "074955.312000", "074955.312000", "074955.312000", "074955.312000", "075000.312000", "075000.312000", "075000.312000", "075000.312000", "075005.312000", "075005.312000", "075005.312000", "075005.312000", "075010.312000", "075010.312000", "075010.312000", "075015.312000", "075015.312000", "075015.312000", "075015.312000", "075020.312000", "075020.312000", "075020.312000", "075020.312000", "075025.312000", "075025.312000", "075025.312000", "075025.312000", "075030.312000", "075030.312000", "075030.312000", "075030.312000", "075035.312000", "075035.312000", "075035.312000", "075040.312000", "075040.312000", "075040.312000", "075040.312000", "075045.312000", "075045.312000", "075045.312000", "075045.328000", "075050.312000", "075050.312000", "075050.312000", "075050.312000", "075055.312000", "075055.312000", "075055.312000", "075055.328000", "075100.312000", "075100.312000", "075100.328000", "075105.312000", "075105.312000", "075105.312000", "075105.328000", "075110.312000", "075110.312000", "075110.312000", "075110.312000", "075115.312000", "075115.328000", "075115.328000", "075115.343000", "075120.312000", "075120.312000", "075120.328000", "075120.328000", "075125.312000", "075125.312000", "075125.312000", "075130.312000", "075130.312000", "075130.312000", "075130.312000", "075135.312000", "075135.312000", "075135.312000", "075135.312000", "075140.312000", "075140.312000", "075140.328000", "075145.312000", "075145.312000", "075145.312000", "075145.328000", "075150.312000", "075150.312000", "075150.312000", "075150.312000", "075155.312000", "075155.312000", "075155.312000", "075155.343000", "075200.312000", "075200.312000", "075200.312000", "075200.312000", "075205.312000", "075205.312000", "075205.312000", "075205.312000", "075210.312000", "075210.312000", "075210.312000", "075210.328000", "075215.312000", "075215.312000", "075215.312000", "075215.328000", "075220.312000", "075220.312000", "075220.328000", "075220.328000", "075225.312000", "075225.312000", "075225.312000", "075225.328000", "075230.312000", "075230.312000", "075230.312000", "075230.328000", "075235.312000", "075235.312000", "075235.312000", "075235.328000", "075240.312000", "075240.312000", "075240.312000", "075240.328000", "075245.312000", "075245.312000", "075245.312000", "075245.312000", "075245.312000", "075250.312000", "075250.312000", "075250.312000", "075253.078000", "075253.078000", "075253.078000"], "InstanceCreationTime": ["074557.609000", "074605.312000", "074605.312000", "074605.312000", "074605.328000", "074605.328000", "074605.328000", "074605.328000", "074615.312000", "074615.312000", "074615.312000", "074615.312000", "074615.328000", "074615.328000", "074615.328000", "074620.312000", "074620.312000", "074620.312000", "074620.312000", "074625.312000", "074625.312000", "074625.312000", "074625.312000", "074630.312000", "074630.312000", "074630.328000", "074635.312000", "074635.312000", "074635.312000", "074635.312000", "074640.312000", "074640.312000", "074640.312000", "074645.312000", "074645.312000", "074645.328000", "074645.328000", "074650.312000", "074650.312000", "074650.312000", "074650.312000", "074655.312000", "074655.343000", "074655.343000", "074655.343000", "074700.312000", "074700.312000", "074700.312000", "074700.312000", "074705.312000", "074705.312000", "074705.312000", "074710.312000", "074710.312000", "074710.312000", "074710.312000", "074710.312000", "074715.312000", "074715.312000", "074715.312000", "074720.312000", "074720.312000", "074720.312000", "074720.312000", "074725.312000", "074725.312000", "074725.312000", "074725.312000", "074730.312000", "074730.312000", "074730.312000", "074735.312000", "074735.312000", "074735.328000", "074735.328000", "074740.312000", "074740.312000", "074740.312000", "074740.328000", "074745.312000", "074745.312000", "074745.312000", "074750.312000", "074750.312000", "074750.312000", "074750.312000", "074755.312000", "074755.328000", "074755.328000", "074755.343000", "074800.312000", "074800.312000", "074800.312000", "074805.312000", "074805.312000", "074805.312000", "074805.312000", "074810.312000", "074810.312000", "074810.312000", "074810.312000", "074815.312000", "074815.312000", "074815.312000", "074815.312000", "074820.312000", "074820.312000", "074820.312000", "074820.312000", "074825.312000", "074825.312000", "074825.312000", "074830.312000", "074830.312000", "074830.312000", "074830.328000", "074835.312000", "074835.312000", "074835.312000", "074840.312000", "074840.312000", "074840.312000", "074840.312000", "074845.312000", "074845.312000", "074845.312000", "074845.312000", "074850.312000", "074850.312000", "074850.312000", "074850.312000", "074855.312000", "074855.312000", "074855.312000", "074900.312000", "074900.312000", "074900.312000", "074900.312000", "074905.312000", "074905.312000", "074905.312000", "074905.328000", "074910.312000", "074910.312000", "074910.312000", "074910.312000", "074915.312000", "074915.312000", "074915.312000", "074920.312000", "074920.312000", "074920.328000", "074920.328000", "074925.312000", "074925.312000", "074925.328000", "074925.328000", "074930.312000", "074930.312000", "074930.328000", "074930.328000", "074935.312000", "074935.312000", "074935.312000", "074935.312000", "074940.312000", "074940.312000", "074940.312000", "074940.312000", "074945.312000", "074945.312000", "074945.312000", "074950.312000", "074950.312000", "074950.312000", "074950.312000", "074955.312000", "074955.312000", "074955.312000", "074955.312000", "075000.312000", "075000.312000", "075000.312000", "075000.312000", "075005.312000", "075005.312000", "075005.312000", "075005.312000", "075010.312000", "075010.312000", "075010.312000", "075015.312000", "075015.312000", "075015.312000", "075015.312000", "075020.312000", "075020.312000", "075020.312000", "075020.312000", "075025.312000", "075025.312000", "075025.312000", "075025.312000", "075030.312000", "075030.312000", "075030.312000", "075030.312000", "075035.312000", "075035.312000", "075035.312000", "075040.312000", "075040.312000", "075040.312000", "075040.312000", "075045.312000", "075045.312000", "075045.312000", "075045.328000", "075050.312000", "075050.312000", "075050.312000", "075050.312000", "075055.312000", "075055.312000", "075055.312000", "075055.328000", "075100.312000", "075100.312000", "075100.328000", "075105.312000", "075105.312000", "075105.312000", "075105.328000", "075110.312000", "075110.312000", "075110.312000", "075110.312000", "075115.312000", "075115.328000", "075115.328000", "075115.343000", "075120.312000", "075120.312000", "075120.328000", "075120.328000", "075125.312000", "075125.312000", "075125.312000", "075130.312000", "075130.312000", "075130.312000", "075130.312000", "075135.312000", "075135.312000", "075135.312000", "075135.312000", "075140.312000", "075140.312000", "075140.328000", "075145.312000", "075145.312000", "075145.312000", "075145.328000", "075150.312000", "075150.312000", "075150.312000", "075150.312000", "075155.312000", "075155.312000", "075155.312000", "075155.343000", "075200.312000", "075200.312000", "075200.312000", "075200.312000", "075205.312000", "075205.312000", "075205.312000", "075205.312000", "075210.312000", "075210.312000", "075210.312000", "075210.328000", "075215.312000", "075215.312000", "075215.312000", "075215.328000", "075220.312000", "075220.312000", "075220.328000", "075220.328000", "075225.312000", "075225.312000", "075225.312000", "075225.328000", "075230.312000", "075230.312000", "075230.312000", "075230.328000", "075235.312000", "075235.312000", "075235.312000", "075235.328000", "075240.312000", "075240.312000", "075240.312000", "075240.328000", "075245.312000", "075245.312000", "075245.312000", "075245.312000", "075245.312000", "075250.312000", "075250.312000", "075250.312000", "075253.078000", "075253.078000", "075253.078000"], "InstanceNumber": [1, 2, 3, 4, 5, 6, 7, 8, 9, 10, 11, 12, 13, 14, 15, 16, 17, 18, 19, 20, 21, 22, 23, 24, 25, 26, 27, 28, 29, 30, 31, 32, 33, 34, 35, 36, 37, 38, 39, 40, 41, 42, 43, 44, 45, 46, 47, 48, 49, 50, 51, 52, 53, 54, 55, 56, 57, 58, 59, 60, 61, 62, 63, 64, 65, 66, 67, 68, 69, 70, 71, 72, 73, 74, 75, 76, 77, 78, 79, 80, 81, 82, 83, 84, 85, 86, 87, 88, 89, 90, 91, 92, 93, 94, 95, 96, 97, 98, 99, 100, 101, 102, 103, 104, 105, 106, 107, 108, 109, 110, 111, 112, 113, 114, 115, 116, 117, 118, 119, 120, 121, 122, 123, 124, 125, 126, 127, 128, 129, 130, 131, 132, 133, 134, 135, 136, 137, 138, 139, 140, 141, 142, 143, 144, 145, 146, 147, 148, 149, 150, 151, 152, 153, 154, 155, 156, 157, 158, 159, 160, 161, 162, 163, 164, 165, 166, 167, 168, 169, 170, 171, 172, 173, 174, 175, 176, 177, 178, 179, 180, 181, 182, 183, 184, 185, 186, 187, 188, 189, 190, 191, 192, 193, 194, 195, 196, 197, 198, 199, 200, 201, 202, 203, 204, 205, 206, 207, 208, 209, 210, 211, 212, 213, 214, 215, 216, 217, 218, 219, 220, 221, 222, 223, 224, 225, 226, 227, 228, 229, 230, 231, 232, 233, 234, 235, 236, 237, 238, 239, 240, 241, 242, 243, 244, 245, 246, 247, 248, 249, 250, 251, 252, 253, 254, 255, 256, 257, 258, 259, 260, 261, 262, 263, 264, 265, 266, 267, 268, 269, 270, 271, 272, 273, 274, 275, 276, 277, 278, 279, 280, 281, 282, 283, 284, 285, 286, 287, 288, 289, 290, 291, 292, 293, 294, 295, 296, 297, 298, 299, 300, 301, 302, 303, 304, 305, 306, 307, 308, 309, 310, 311, 312, 313, 314, 315, 316, 317, 318], "LargestImagePixelValue": [26752, 24142, 26442, 25530, 25585, 22928, 23244, 23412, 23431, 23367, 26968, 24057, 24814, 23562, 27929, 27228, 29030, 25681, 23653, 23514, 26032, 26089, 23325, 24517, 23223, 25892, 24357, 23589, 23483, 23432, 24599, 23403, 27870, 23734, 24693, 24557, 25517, 27275, 25483, 23614, 23544, 23493, 23862, 23606, 24807, 25773, 23419, 23486, 23522, 23630, 23445, 23642, 23306, 23399, 23823, 23628, 23234, 25061, 26316, 24174, 24561, 23227, 25682, 28523, 29890, 26502, 30155, 29397, 23625, 23278, 26146, 28688, 29407, 29252, 23680, 26784, 23783, 23297, 25790, 23162, 23409, 23496, 28400, 26081, 23299, 23646, 24565, 23578, 26278, 30057, 24211, 23501, 25148, 24300, 27137, 28412, 23541, 23291, 23538, 23446, 23808, 23838, 23331, 24487, 23356, 27643, 30107, 25363, 24838, 30730, 24143, 26763, 24327, 24201, 23790, 23410, 26863, 25342, 26665, 27706, 23679, 23063, 26391, 27238, 25473, 26793, 29137, 26666, 24306, 25196, 28711, 27118, 26235, 23258, 24892, 24795, 23084, 23074, 26386, 29490, 24591, 23665, 23203, 23507, 24486, 23093, 25040, 23023, 23020, 23146, 23349, 23124, 24138, 23916, 22955, 22742, 23175, 22963, 22861, 24599, 25312, 24519, 24662, 25100, 22700, 22875, 27112, 22749, 22652, 25801, 23100, 26550, 26752, 26133, 23229, 29400, 29100, 26378, 29996, 30263, 23386, 22778, 24520, 29798, 26428, 23685, 24300, 23102, 24200, 28542, 27455, 23605, 26011, 25843, 23003, 25735, 22892, 22947, 28465, 22883, 22839, 28247, 23060, 25402, 28381, 22864, 24981, 24471, 22586, 22567, 22467, 24220, 22781, 22678, 31060, 30759, 26358, 23961, 24876, 23300, 26242, 28915, 28954, 29272, 27122, 27978, 22657, 24126, 26751, 23400, 27834, 26022, 22814, 25658, 28256, 27243, 25050, 23430, 27223, 27987, 25279, 23096, 22650, 24688, 25840, 24117, 22937, 22932, 22814, 22917, 23622, 23014, 22430, 22874, 27718, 22776, 22884, 24729, 22902, 22705, 25766, 25371, 22456, 27432, 24268, 22618, 22832, 22713, 23236, 24900, 30613, 26140, 22968, 28107, 29727, 31489, 28296, 22907, 28127, 22824, 24373, 27724, 31335, 22513, 22417, 23298, 24020, 24861, 22640, 23558, 24486, 25514, 23254, 22716, 26993, 29732, 22562, 22969, 25217, 27529, 26357, 30062, 29361, 22430, 22587, 28299, 22393, 27105, 27645, 23313, 22815, 22615, 22552, 22807, 22491, 22530, 26384, 22538], "WindowCenter": [9694.0, 9664.0, 9668.0, 9664.0, 9670.0, 9658.0, 9656.0, 9637.0, 9644.0, 9660.0, 9705.0, 9686.0, 9675.0, 9635.0, 9666.0, 9661.0, 9674.0, 9649.0, 9639.0, 9615.0, 9635.0, 9641.0, 9621.0, 9649.0, 9622.0, 9627.0, 9606.0, 9620.0, 9650.0, 9664.0, 9661.0, 9641.0, 9660.0, 9613.0, 9626.0, 9635.0, 9640.0, 9635.0, 9613.0, 9628.0, 9638.0, 9624.0, 9610.0, 9605.0, 9643.0, 9631.0, 9617.0, 9632.0, 9659.0, 9665.0, 9646.0, 9671.0, 9646.0, 9681.0, 9679.0, 9674.0, 9702.0, 9689.0, 9705.0, 9727.0, 9736.0, 9698.0, 9698.0, 9714.0, 9682.0, 9670.0, 9669.0, 9652.0, 9635.0, 9647.0, 9658.0, 9642.0, 9666.0, 9638.0, 9627.0, 9652.0, 9640.0, 9633.0, 9613.0, 9597.0, 9612.0, 9635.0, 9661.0, 9629.0, 9609.0, 9606.0, 9617.0, 9638.0, 9649.0, 9646.0, 9617.0, 9630.0, 9623.0, 9644.0, 9653.0, 9644.0, 9617.0, 9603.0, 9611.0, 9627.0, 9660.0, 9652.0, 9642.0, 9657.0, 9657.0, 9682.0, 9691.0, 9658.0, 9667.0, 9692.0, 9642.0, 9668.0, 9761.0, 9732.0, 9679.0, 9690.0, 9690.0, 9672.0, 9665.0, 9645.0, 9634.0, 9623.0, 9668.0, 9651.0, 9636.0, 9626.0, 9629.0, 9631.0, 9613.0, 9623.0, 9610.0, 9618.0, 9602.0, 9594.0, 9641.0, 9624.0, 9616.0, 9586.0, 9611.0, 9620.0, 9618.0, 9602.0, 9605.0, 9616.0, 9597.0, 9608.0, 9624.0, 9611.0, 9615.0, 9601.0, 9609.0, 9605.0, 9627.0, 9646.0, 9623.0, 9641.0, 9652.0, 9652.0, 9654.0, 9661.0, 9681.0, 9657.0, 9658.0, 9660.0, 9650.0, 9664.0, 9676.0, 9639.0, 9657.0, 9696.0, 9676.0, 9645.0, 9653.0, 9640.0, 9618.0, 9659.0, 9670.0, 9647.0, 9642.0, 9646.0, 9622.0, 9613.0, 9624.0, 9629.0, 9615.0, 9597.0, 9617.0, 9618.0, 9640.0, 9644.0, 9647.0, 9605.0, 9635.0, 9612.0, 9616.0, 9619.0, 9602.0, 9615.0, 9643.0, 9627.0, 9607.0, 9661.0, 9622.0, 9627.0, 9649.0, 9618.0, 9636.0, 9636.0, 9618.0, 9675.0, 9671.0, 9672.0, 9654.0, 9644.0, 9697.0, 9700.0, 9669.0, 9737.0, 9736.0, 9683.0, 9679.0, 9708.0, 9680.0, 9666.0, 9648.0, 9621.0, 9601.0, 9633.0, 9662.0, 9642.0, 9659.0, 9637.0, 9610.0, 9636.0, 9648.0, 9611.0, 9601.0, 9575.0, 9609.0, 9625.0, 9590.0, 9586.0, 9575.0, 9601.0, 9586.0, 9601.0, 9615.0, 9611.0, 9607.0, 9612.0, 9610.0, 9618.0, 9611.0, 9610.0, 9643.0, 9624.0, 9615.0, 9628.0, 9633.0, 9634.0, 9660.0, 9644.0, 9623.0, 9658.0, 9665.0, 9656.0, 9663.0, 9678.0, 9666.0, 9703.0, 9754.0, 9778.0, 9687.0, 9733.0, 9716.0, 9705.0, 9669.0, 9634.0, 9632.0, 9604.0, 9619.0, 9634.0, 9632.0, 9571.0, 9585.0, 9587.0, 9593.0, 9623.0, 9606.0, 9579.0, 9597.0, 9594.0, 9600.0, 9599.0, 9635.0, 9626.0, 9583.0, 9582.0, 9617.0, 9636.0, 9627.0, 9619.0, 9620.0, 9586.0, 9596.0, 9632.0, 9593.0, 9613.0, 9632.0, 9604.0, 9598.0, 9601.0, 9603.0, 9620.0, 9649.0, 9642.0, 9655.0, 9625.0], "WindowWidth": [20492.0, 20428.0, 20428.0, 20421.0, 20429.0, 20406.0, 20404.0, 20372.0, 20386.0, 20418.0, 20499.0, 20466.0, 20444.0, 20367.0, 20418.0, 20407.0, 20430.0, 20385.0, 20362.0, 20315.0, 20350.0, 20364.0, 20329.0, 20381.0, 20329.0, 20336.0, 20297.0, 20324.0, 20390.0, 20417.0, 20410.0, 20370.0, 20399.0, 20312.0, 20333.0, 20356.0, 20363.0, 20353.0, 20310.0, 20339.0, 20357.0, 20332.0, 20304.0, 20296.0, 20365.0, 20344.0, 20322.0, 20352.0, 20404.0, 20420.0, 20389.0, 20435.0, 20391.0, 20455.0, 20453.0, 20440.0, 20492.0, 20467.0, 20499.0, 20584.0, 20586.0, 20498.0, 20493.0, 20517.0, 20456.0, 20426.0, 20422.0, 20382.0, 20353.0, 20378.0, 20400.0, 20369.0, 20411.0, 20356.0, 20335.0, 20380.0, 20363.0, 20345.0, 20307.0, 20274.0, 20301.0, 20351.0, 20399.0, 20342.0, 20306.0, 20296.0, 20318.0, 20359.0, 20381.0, 20371.0, 20318.0, 20339.0, 20332.0, 20370.0, 20389.0, 20371.0, 20317.0, 20288.0, 20305.0, 20340.0, 20408.0, 20396.0, 20380.0, 20405.0, 20406.0, 20452.0, 