{
    "AcquisitionMatrixPE": 96,
    "AcquisitionNumber": 1,
    "AcquisitionTime": "07:57:40.885000",
    "BandwidthPerPixelPhaseEncode": 33.602,
    "BaseResolution": 96,
    "BodyPartExamined": "BRAIN",
    "ConsistencyInfo": "N4_VD11D_LATEST_20110129",
    "ConversionSoftware": "dcm2niix",
    "ConversionSoftwareVersion": "v1.0.20210317",
    "DerivedVendorReportedEchoSpacing": 0.000620003,
    "DeviceSerialNumber": "45239",
    "DwellTime": 2.6e-06,
    "EchoTime": 0.03,
    "EchoTrainLength": 48,
    "EffectiveEchoSpacing": 0.000310001,
    "FlipAngle": 63,
    "ImageComments": "Unaliased MB4/PE3",
    "ImageOrientationPatientDICOM": [
        0.999667,
        0.022316,
        0.0129311,
        -0.0122678,
        0.852431,
        -0.522697
    ],
    "ImageType": [
        "ORIGINAL",
        "PRIMARY",
        "M",
        "ND",
        "NORM",
        "MOSAIC"
    ],
    "ImagingFrequency": 123.193,
    "InPlanePhaseEncodingDirectionDICOM": "COL",
    "InstitutionAddress": "E 24th St. 100,Austin,Southmiddle,US,78712",
    "InstitutionName": "Univ of Texas at Austin",
    "InstitutionalDepartmentName": "IRC",
    "MRAcquisitionType": "2D",
    "MagneticFieldStrength": 3,
    "Manufacturer": "Siemens",
    "ManufacturersModelName": "Skyra",
    "Modality": "MR",
    "MultibandAccelerationFactor": 4,
    "ParallelReductionFactorInPlane": 2,
    "PartialFourier": 1,
    "PatientPosition": "HFS",
    "PercentPhaseFOV": 100,
    "PercentSampling": 100,
    "PhaseEncodingDirection": "j-",
    "PhaseEncodingSteps": 96,
    "PhaseResolution": 1,
    "PixelBandwidth": 2005,
    "ProcedureStepDescription": "Poldrack2^self-scanning",
    "ProtocolName": "dots_motion",
    "PulseSequenceDetails": "%CustomerSeq%\\cmrr_mbep2d_bold",
    "ReceiveCoilActiveElements": "HEA;HEP",
    "ReceiveCoilName": "Head_32",
    "ReconMatrixPE": 96,
    "RefLinesPE": 94,
    "RepetitionTime": 1.16,
    "SAR": 0.0962011,
    "ScanOptions": "FS",
    "ScanningSequence": "EP",
    "SequenceName": "epfid2d1_96",
    "SequenceVariant": "SK",
    "SeriesDescription": "dots_motion",
    "SeriesNumber": 10,
    "ShimSetting": [
        -2783,
        8044,
        -15416,
        78,
        -200,
        174,
        222,
        -47
    ],
    "SliceThickness": 2,
    "SliceTiming": [
        0,
        0.4975,
        0.9975,
        0.355,
        0.855,
        0.2125,
        0.7125,
        0.07,
        0.57,
        1.0675,
        0.4275,
        0.925,
        0.285,
        0.7825,
        0.1425,
        0.64,
        0,
        0.4975,
        0.9975,
        0.355,
        0.855,
        0.2125,
        0.7125,
        0.07,
        0.57,
        1.0675,
        0.4275,
        0.925,
        0.285,
        0.7825,
        0.1425,
        0.64,
        0,
        0.4975,
        0.9975,
        0.355,
        0.855,
        0.2125,
        0.7125,
        0.07,
        0.57,
        1.0675,
        0.4275,
        0.925,
        0.285,
        0.7825,
        0.1425,
        0.64,
        0,
        0.4975,
        0.9975,
        0.355,
        0.855,
        0.2125,
        0.7125,
        0.07,
        0.57,
        1.0675,
        0.4275,
        0.925,
        0.285,
        0.7825,
        0.1425,
        0.64
    ],
    "SoftwareVersions": "syngo MR D11",
    "SpacingBetweenSlices": 2.4,
    "StationName": "AWP45239",
    "TaskName": "Dot motion stop-signal task",
    "TotalReadoutTime": 0.0294501,
    "TxRefAmp": 335.954,
    "WipMemBlock": "f1108260-e2da-4887-b8d5-d8360a532ea6||Sequence: VD11D r206; Feb 13 2013 18:52:04 by eja",
    "dcmmeta_affine": [
        [
            -2.395036220550537,
            -0.029391705989837646,
            0.054449643939733505,
            118.89805603027344
        ],
        [
            -0.053465329110622406,
            2.04228138923645,
            -1.253673791885376,
            -74.46197509765625
        ],
        [
            0.030980780720710754,
            1.2522938251495361,
            2.045809745788574,
            -84.81562805175781
        ],
        [
            0.0,
            0.0,
            0.0,
            1.0
        ]
    ],
    "dcmmeta_reorient_transform": [
        [
            0.0,
            -1.0,
            0.0,
            95.0
        ],
        [
            1.0,
            0.0,
            0.0,
            0.0
        ],
        [
            0.0,
            0.0,
            1.0,
            0.0
        ],
        [
            0.0,
            0.0,
            0.0,
            1.0
        ]
    ],
    "dcmmeta_shape": [
        96,
        96,
        64,
        372
    ],
    "dcmmeta_slice_dim": 2,
    "dcmmeta_version": 0.6,
    "global": {
        "const": {
            "AcquisitionMatrix": [
                96,
                0,
                0,
                96
            ],
            "AngioFlag": "N",
            "BitsAllocated": 16,
            "BitsStored": 16,
            "BodyPartExamined": "BRAIN",
            "Columns": 768,
            "EchoNumbers": 1,
            "EchoTime": 30.0,
            "EchoTrainLength": 48,
            "FlipAngle": 63.0,
            "HighBit": 15,
            "ImageOrientationPatient": [
                0.99966733674451,
                0.02231596426062,
                0.01293110920451,
                -0.0122678431235,
                0.85243050904971,
                -0.5226965919789
            ],
            "ImagePositionPatient": [
                -910.96241298911,
                -823.72564064611,
                444.513489231
            ],
            "ImageType": [
                "ORIGINAL",
                "PRIMARY",
                "M",
                "ND",
                "NORM",
                "MOSAIC"
            ],
            "ImagedNucleus": "1H",
            "ImagingFrequency": 123.193235,
            "InPlanePhaseEncodingDirection": "COL",
            "MRAcquisitionType": "2D",
            "MagneticFieldStrength": 3.0,
            "Manufacturer": "SIEMENS",
            "ManufacturerModelName": "Skyra",
            "Modality": "MR",
            "NumberOfAverages": 1.0,
            "NumberOfPhaseEncodingSteps": 96,
            "PercentPhaseFieldOfView": 100.0,
            "PercentSampling": 100.0,
            "PerformedProcedureStepStartTime": "071855.328000",
            "PhotometricInterpretation": "MONOCHROME2",
            "PixelBandwidth": 2005.0,
            "PixelRepresentation": 0,
            "PixelSpacing": [
                2.3958332538605,
                2.3958332538605
            ],
            "ProtocolName": "dots_motion",
            "RepetitionTime": 1160.0,
            "Rows": 768,
            "SAR": 0.09620107157177,
            "SamplesPerPixel": 1,
            "ScanOptions": "FS",
            "ScanningSequence": "EP",
            "SequenceName": "epfid2d1_96",
            "SequenceVariant": "SK",
            "SeriesDescription": "dots_motion",
            "SeriesNumber": 10,
            "SeriesTime": "075819.953000",
            "SliceLocation": -30.704855238863,
            "SliceThickness": 2.0,
            "SmallestImagePixelValue": 0,
            "SoftwareVersions": "syngo MR D11",
            "SpacingBetweenSlices": 2.4000000672454,
            "SpecificCharacterSet": "ISO_IR 100",
            "StudyID": "1",
            "StudyTime": "071855.281000",
            "TransmitCoilName": "Body",
            "VariableFlipAngleFlag": "N",
            "WindowCenterWidthExplanation": "Algo1",
            "dBdt": 0.0
        },
        "slices": {}
    },
    "time": {
        "samples": {
            "AcquisitionNumber": [
                1,
                2,
                3,
                4,
                5,
                6,
                7,
                8,
                9,
                10,
                11,
                12,
                13,
                14,
                15,
                16,
                17,
                18,
                19,
                20,
                21,
                22,
                23,
                24,
                25,
                26,
                27,
                28,
                29,
                30,
                31,
                32,
                33,
                34,
                35,
                36,
                37,
                38,
                39,
                40,
                41,
                42,
                43,
                44,
                45,
                46,
                47,
                48,
                49,
                50,
                51,
                52,
                53,
                54,
                55,
                56,
                57,
                58,
                59,
                60,
                61,
                62,
                63,
                64,
                65,
                66,
                67,
                68,
                69,
                70,
                71,
                72,
                73,
                74,
                75,
                76,
                77,
                78,
                79,
                80,
                81,
                82,
                83,
                84,
                85,
                86,
                87,
                88,
                89,
                90,
                91,
                92,
                93,
                94,
                95,
                96,
                97,
                98,
                99,
                100,
                101,
                102,
                103,
                104,
                105,
                106,
                107,
                108,
                109,
                110,
                111,
                112,
                113,
                114,
                115,
                116,
                117,
                118,
                119,
                120,
                121,
                122,
                123,
                124,
                125,
                126,
                127,
                128,
                129,
                130,
                131,
                132,
                133,
                134,
                135,
                136,
                137,
                138,
                139,
                140,
                141,
                142,
                143,
                144,
                145,
                146,
                147,
                148,
                149,
                150,
                151,
                152,
                153,
                154,
                155,
                156,
                157,
                158,
                159,
                160,
                161,
                162,
                163,
                164,
                165,
                166,
                167,
                168,
                169,
                170,
                171,
                172,
                173,
                174,
                175,
                176,
                177,
                178,
                179,
                180,
                181,
                182,
                183,
                184,
                185,
                186,
                187,
                188,
                189,
                190,
                191,
                192,
                193,
                194,
                195,
                196,
                197,
                198,
                199,
                200,
                201,
                202,
                203,
                204,
                205,
                206,
                207,
                208,
                209,
                210,
                211,
                212,
                213,
                214,
                215,
                216,
                217,
                218,
                219,
                220,
                221,
                222,
                223,
                224,
                225,
                226,
                227,
                228,
                229,
                230,
                231,
                232,
                233,
                234,
                235,
                236,
                237,
                238,
                239,
                240,
                241,
                242,
                243,
                244,
                245,
                246,
                247,
                248,
                249,
                250,
                251,
                252,
                253,
                254,
                255,
                256,
                257,
                258,
                259,
                260,
                261,
                262,
                263,
                264,
                265,
                266,
                267,
                268,
                269,
                270,
                271,
                272,
                273,
                274,
                275,
                276,
                277,
                278,
                279,
                280,
                281,
                282,
                283,
                284,
                285,
                286,
                287,
                288,
                289,
                290,
                291,
                292,
                293,
                294,
                295,
                296,
                297,
                298,
                299,
                300,
                301,
                302,
                303,
                304,
                305,
                306,
                307,
                308,
                309,
                310,
                311,
                312,
                313,
                314,
                315,
                316,
                317,
                318,
                319,
                320,
                321,
                322,
                323,
                324,
                325,
                326,
                327,
                328,
                329,
                330,
                331,
                332,
                333,
                334,
                335,
                336,
                337,
                338,
                339,
                340,
                341,
                342,
                343,
                344,
                345,
                346,
                347,
                348,
                349,
                350,
                351,
                352,
                353,
                354,
                355,
                356,
                357,
                358,
                359,
                360,
                361,
                362,
                363,
                364,
                365,
                366,
                367,
                368,
                369,
                370,
                371,
                372
            ],
            "AcquisitionTime": [
                "075740.885000",
                "075809.885000",
                "075811.045000",
                "075812.205000",
                "075813.365000",
                "075814.525000",
                "075815.685000",
                "075816.845000",
                "075818.005000",
                "075819.165000",
                "075820.325000",
                "075821.485000",
                "075822.645000",
                "075823.805000",
                "075824.965000",
                "075826.125000",
                "075827.285000",
                "075828.445000",
                "075829.605000",
                "075830.765000",
                "075831.925000",
                "075833.085000",
                "075834.245000",
                "075835.405000",
                "075836.565000",
                "075837.725000",
                "075838.885000",
                "075840.045000",
                "075841.205000",
                "075842.365000",
                "075843.525000",
                "075844.685000",
                "075845.845000",
                "075847.005000",
                "075848.165000",
                "075849.325000",
                "075850.485000",
                "075851.645000",
                "075852.805000",
                "075853.965000",
                "075855.125000",
                "075856.285000",
                "075857.445000",
                "075858.605000",
                "075859.765000",
                "075900.925000",
                "075902.085000",
                "075903.245000",
                "075904.405000",
                "075905.565000",
                "075906.725000",
                "075907.885000",
                "075909.045000",
                "075910.205000",
                "075911.365000",
                "075912.525000",
                "075913.685000",
                "075914.845000",
                "075916.005000",
                "075917.165000",
                "075918.325000",
                "075919.485000",
                "075920.645000",
                "075921.805000",
                "075922.965000",
                "075924.125000",
                "075925.285000",
                "075926.445000",
                "075927.605000",
                "075928.765000",
                "075929.925000",
                "075931.085000",
                "075932.245000",
                "075933.405000",
                "075934.565000",
                "075935.725000",
                "075936.885000",
                "075938.045000",
                "075939.205000",
                "075940.365000",
                "075941.525000",
                "075942.685000",
                "075943.845000",
                "075945.005000",
                "075946.165000",
                "075947.325000",
                "075948.485000",
                "075949.645000",
                "075950.805000",
                "075951.965000",
                "075953.125000",
                "075954.285000",
                "075955.445000",
                "075956.605000",
                "075957.765000",
                "075958.925000",
                "080000.085000",
                "080001.245000",
                "080002.405000",
                "080003.565000",
                "080004.725000",
                "080005.885000",
                "080007.045000",
                "080008.205000",
                "080009.365000",
                "080010.525000",
                "080011.685000",
                "080012.845000",
                "080014.005000",
                "080015.165000",
                "080016.325000",
                "080017.485000",
                "080018.645000",
                "080019.805000",
                "080020.965000",
                "080022.125000",
                "080023.285000",
                "080024.445000",
                "080025.605000",
                "080026.765000",
                "080027.925000",
                "080029.085000",
                "080030.245000",
                "080031.405000",
                "080032.565000",
                "080033.725000",
                "080034.885000",
                "080036.045000",
                "080037.205000",
                "080038.365000",
                "080039.525000",
                "080040.685000",
                "080041.845000",
                "080043.005000",
                "080044.165000",
                "080045.325000",
                "080046.485000",
                "080047.645000",
                "080048.805000",
                "080049.965000",
                "080051.125000",
                "080052.285000",
                "080053.445000",
                "080054.605000",
                "080055.765000",
                "080056.925000",
                "080058.085000",
                "080059.245000",
                "080100.405000",
                "080101.565000",
                "080102.725000",
                "080103.885000",
                "080105.045000",
                "080106.205000",
                "080107.365000",
                "080108.525000",
                "080109.685000",
                "080110.845000",
                "080112.005000",
                "080113.165000",
                "080114.325000",
                "080115.485000",
                "080116.645000",
                "080117.805000",
                "080118.965000",
                "080120.125000",
                "080121.285000",
                "080122.445000",
                "080123.605000",
                "080124.765000",
                "080125.925000",
                "080127.085000",
                "080128.245000",
                "080129.405000",
                "080130.565000",
                "080131.725000",
                "080132.885000",
                "080134.045000",
                "080135.205000",
                "080136.365000",
                "080137.525000",
                "080138.685000",
                "080139.845000",
                "080141.005000",
                "080142.165000",
                "080143.325000",
                "080144.485000",
                "080145.645000",
                "080146.805000",
                "080147.967500",
                "080149.127500",
                "080150.287500",
                "080151.447500",
                "080152.607500",
                "080153.767500",
                "080154.927500",
                "080156.087500",
                "080157.247500",
                "080158.407500",
                "080159.567500",
                "080200.727500",
                "080201.887500",
                "080203.047500",
                "080204.207500",
                "080205.367500",
                "080206.527500",
                "080207.687500",
                "080208.847500",
                "080210.007500",
                "080211.167500",
                "080212.327500",
                "080213.487500",
                "080214.647500",
                "080215.807500",
                "080216.967500",
                "080218.127500",
                "080219.287500",
                "080220.447500",
                "080221.607500",
                "080222.767500",
                "080223.927500",
                "080225.087500",
                "080226.247500",
                "080227.407500",
                "080228.567500",
                "080229.727500",
                "080230.887500",
                "080232.047500",
                "080233.207500",
                "080234.367500",
                "080235.527500",
                "080236.687500",
                "080237.847500",
                "080239.007500",
                "080240.167500",
                "080241.327500",
                "080242.487500",
                "080243.647500",
                "080244.807500",
                "080245.967500",
                "080247.127500",
                "080248.287500",
                "080249.447500",
                "080250.607500",
                "080251.767500",
                "080252.927500",
                "080254.087500",
                "080255.247500",
                "080256.407500",
                "080257.567500",
                "080258.727500",
                "080259.887500",
                "080301.047500",
                "080302.207500",
                "080303.367500",
                "080304.527500",
                "080305.687500",
                "080306.847500",
                "080308.007500",
                "080309.167500",
                "080310.327500",
                "080311.487500",
                "080312.647500",
                "080313.807500",
                "080314.967500",
                "080316.127500",
                "080317.287500",
                "080318.447500",
                "080319.607500",
                "080320.767500",
                "080321.927500",
                "080323.087500",
                "080324.247500",
                "080325.407500",
                "080326.567500",
                "080327.727500",
                "080328.887500",
                "080330.047500",
                "080331.207500",
                "080332.367500",
                "080333.527500",
                "080334.687500",
                "080335.847500",
                "080337.007500",
                "080338.167500",
                "080339.327500",
                "080340.487500",
                "080341.647500",
                "080342.807500",
                "080343.967500",
                "080345.127500",
                "080346.287500",
                "080347.447500",
                "080348.607500",
                "080349.767500",
                "080350.927500",
                "080352.087500",
                "080353.247500",
                "080354.407500",
                "080355.567500",
                "080356.727500",
                "080357.887500",
                "080359.047500",
                "080400.207500",
                "080401.367500",
                "080402.527500",
                "080403.687500",
                "080404.847500",
                "080406.007500",
                "080407.167500",
                "080408.327500",
                "080409.487500",
                "080410.647500",
                "080411.807500",
                "080412.967500",
                "080414.127500",
                "080415.287500",
                "080416.447500",
                "080417.607500",
                "080418.767500",
                "080419.927500",
                "080421.087500",
                "080422.247500",
                "080423.407500",
                "080424.567500",
                "080425.727500",
                "080426.887500",
                "080428.047500",
                "080429.207500",
                "080430.367500",
                "080431.527500",
                "080432.687500",
                "080433.847500",
                "080435.007500",
                "080436.167500",
                "080437.327500",
                "080438.487500",
                "080439.647500",
                "080440.807500",
                "080441.967500",
                "080443.127500",
                "080444.287500",
                "080445.447500",
                "080446.607500",
                "080447.767500",
                "080448.927500",
                "080450.087500",
                "080451.247500",
                "080452.407500",
                "080453.567500",
                "080454.727500",
                "080455.887500",
                "080457.047500",
                "080458.207500",
                "080459.367500",
                "080500.527500",
                "080501.687500",
                "080502.847500",
                "080504.007500",
                "080505.167500",
                "080506.327500",
                "080507.487500",
                "080508.647500",
                "080509.807500",
                "080510.967500",
                "080512.127500",
                "080513.287500",
                "080514.447500",
                "080515.607500",
                "080516.767500",
                "080517.927500",
                "080519.087500"
            ],
            "ContentTime": [
                "075819.953000",
                "075828.312000",
                "075828.312000",
                "075828.328000",
                "075828.328000",
                "075828.328000",
                "075828.328000",
                "075833.312000",
                "075833.312000",
                "075833.328000",
                "075838.312000",
                "075838.312000",
                "075838.312000",
                "075838.328000",
                "075843.312000",
                "075843.312000",
                "075843.312000",
                "075843.328000",
                "075848.312000",
                "075848.312000",
                "075848.312000",
                "075853.312000",
                "075853.312000",
                "075853.328000",
                "075853.328000",
                "075858.312000",
                "075858.312000",
                "075858.312000",
                "075858.328000",
                "075903.312000",
                "075903.312000",
                "075903.312000",
                "075903.328000",
                "075908.312000",
                "075908.312000",
                "075908.312000",
                "075913.312000",
                "075913.312000",
                "075913.312000",
                "075913.328000",
                "075918.312000",
                "075918.312000",
                "075918.328000",
                "075923.312000",
                "075923.312000",
                "075923.312000",
                "075923.328000",
                "075923.328000",
                "075928.312000",
                "075928.312000",
                "075928.312000",
                "075933.312000",
                "075933.312000",
                "075933.312000",
                "075933.328000",
                "075938.312000",
                "075938.312000",
                "075938.312000",
                "075943.312000",
                "075943.312000",
                "075943.312000",
                "075943.328000",
                "075948.312000",
                "075948.312000",
                "075948.312000",
                "075948.328000",
                "075953.312000",
                "075953.312000",
                "075953.312000",
