{"AcquisitionMatrixPE": 96, "AcquisitionNumber": 1, "AcquisitionTime": "17:17:37.525000", "BaseResolution": 96, "BodyPartExamined": "BRAIN", "ConsistencyInfo": "N4_VD11D_LATEST_20110129", "ConversionSoftware": "dcm2niix", "ConversionSoftwareVersion": "v1.0.20210317", "DeviceSerialNumber": "45239", "DwellTime": 9.2e-06, "EchoNumber": 2, "EchoTime": 0.00738, "EchoTime1": 0.00492, "EchoTime2": 0.00738, "FlipAngle": 50, "ImageOrientationPatientDICOM": [0.99912, 0.0283694, 0.0308834, -0.00224429, 0.771563, -0.636149], "ImageType": ["ORIGINAL", "PRIMARY", "P", "ND", "PHASE"], "ImagingFrequency": 123.194, "InPlanePhaseEncodingDirectionDICOM": "COL", "InstitutionAddress": "E 24th St. 100,Austin,Southmiddle,US,78712", "InstitutionName": "Univ of Texas at Austin", "InstitutionalDepartmentName": "IRC", "MRAcquisitionType": "2D", "MagneticFieldStrength": 3, "Manufacturer": "Siemens", "ManufacturersModelName": "Skyra", "Modality": "MR", "MultibandAccelerationFactor": 2, "PartialFourier": 1, "PatientPosition": "HFS", "PercentPhaseFOV": 100, "PercentSampling": 100, "PhaseEncodingDirection": "j-", "PhaseEncodingSteps": 96, "PhaseResolution": 1, "PixelBandwidth": 565, "ProcedureStepDescription": "Poldrack2^self-scanning", "ProtocolName": "gre_field_mapping", "PulseSequenceDetails": "%SiemensSeq%\\gre_field_mapping", "ReceiveCoilActiveElements": "HEA;HEP;SP1", "ReceiveCoilName": "Head_32", "ReconMatrixPE": 96, "RepetitionTime": 0.731, "SAR": 0.121807, "ScanningSequence": "GR", "SequenceName": "*fm2d2r", "SequenceVariant": "SP", "SeriesDescription": "gre_field_mapping", "SeriesNumber": 11, "ShimSetting": [-2795, 8119, -15481, 161, -265, 183, 75, -103], "SliceThickness": 2, "SliceTiming": [0.375, 0, 0.375, 0.01562, 0.39062, 0.03125, 0.40625, 0.03125, 0.40625, 0.04688, 0.42188, 0.0625, 0.4375, 0.0625, 0.4375, 0.07812, 0.45312, 0.09375, 0.46875, 0.09375, 0.46875, 0.10938, 0.48438, 0.125, 0.5, 0.125, 0.51562, 0.14062, 0.51562, 0.15625, 0.53125, 0.15625, 0.53125, 0.17188, 0.54688, 0.1875, 0.5625, 0.20312, 0.57812, 0.20312, 0.57812, 0.21875, 0.59375, 0.23438, 0.60938, 0.23438, 0.60938, 0.25, 0.625, 0.26562, 0.64062, 0.26562, 0.64062, 0.28125, 0.65625, 0.29688, 0.67188, 0.29688, 0.67188, 0.3125, 0.6875, 0.32812, 0.70312, 0.34375, 0.71875, 0.34375, 0.71875, 0.35938], "SoftwareVersions": "syngo MR D11", "SpacingBetweenSlices": 2.4, "StationName": "AWP45239", "TxRefAmp": 341.985, "dcmmeta_affine": [[-2.393725633621216, -0.0053769564256072044, 0.10050106048583984, 117.037109375], [-0.06796836107969284, 1.8485357761383057, -1.5252456665039062, -49.33243179321289], [0.07399149239063263, 1.5241074562072754, 1.8502731323242188, -117.29661560058594], [0.0, 0.0, 0.0, 1.0]], "dcmmeta_reorient_transform": [[0.0, -1.0, 0.0, 95.0], [1.0, 0.0, 0.0, 0.0], [0.0, 0.0, -1.0, 67.0], [0.0, 0.0, 0.0, 1.0]], "dcmmeta_shape": [96, 96, 68], "dcmmeta_slice_dim": 2, "dcmmeta_version": 0.6, "global": {"const": {"AcquisitionMatrix": [96, 0, 0, 96], "AcquisitionNumber": 1, "AngioFlag": "N", "BitsAllocated": 16, "BitsStored": 12, "BodyPartExamined": "BRAIN", "Columns": 96, "EchoNumbers": 2, "EchoTime": 7.38, "EchoTrainLength": 0, "FlipAngle": 50.0, "HighBit": 11, "ImageOrientationPatient": [0.99912030910555, 0.02836940350224, 0.03088340780659, -0.0022442948538, 0.77156279145308, -0.6361492136172], "ImageType": ["ORIGINAL", "PRIMARY", "P", "ND"], "ImagedNucleus": "1H", "ImagingFrequency": 123.193517, "InPlanePhaseEncodingDirection": "COL", "MRAcquisitionType": "2D", "MagneticFieldStrength": 3.0, "Manufacturer": "SIEMENS", "ManufacturerModelName": "Skyra", "Modality": "MR", "NumberOfAverages": 1.0, "NumberOfPhaseEncodingSteps": 96, "PercentPhaseFieldOfView": 100.0, "PercentSampling": 100.0, "PerformedProcedureStepStartTime": "165419.828000", "PhotometricInterpretation": "MONOCHROME2", "PixelBandwidth": 565.0, "PixelRepresentation": 0, "PixelSpacing": [2.3958332538605, 2.3958332538605], "ProtocolName": "gre_field_mapping", "RepetitionTime": 731.0, "RescaleIntercept": -4096.0, "RescaleSlope": 2.0, "RescaleType": "US", "Rows": 96, "SAR": 0.12180675621255, "SamplesPerPixel": 1, "ScanningSequence": "GR", "SequenceName": "*fm2d2r", "SequenceVariant": "SP", "SeriesDescription": "gre_field_mapping", "SeriesNumber": 11, "SeriesTime": "171958.781000", "SliceThickness": 2.0, "SoftwareVersions": "syngo MR D11", "SpacingBetweenSlices": 2.4, "SpecificCharacterSet": "ISO_IR 100", "StudyID": "1", "StudyTime": "165419.796000", "TransmitCoilName": "Body", "VariableFlipAngleFlag": "N", "WindowCenterWidthExplanation": "Algo1", "dBdt": 0.0}, "slices": {"AcquisitionTime": ["171737.525000", "171737.157500", "171737.535000", "171737.170000", "171737.545000", "171737.180000", "171737.557500", "171737.190000", "171737.567500", "171737.202500", "171737.577500", "171737.212500", "171737.587500", "171737.222500", "171737.600000", "171737.235000", "171737.610000", "171737.245000", "171737.620000", "171737.255000", "171737.632500", "171737.265000", "171737.642500", "171737.277500", "171737.652500", "171737.287500", "171737.665000", "171737.297500", "171737.675000", "171737.310000", "171737.685000", "171737.320000", "171737.695000", "171737.330000", "171737.707500", "171737.342500", "171737.717500", "171737.352500", "171737.727500", "171737.362500", "171737.740000", "171737.372500", "171737.750000", "171737.385000", "171737.760000", "171737.395000", "171737.772500", "171737.405000", "171737.782500", "171737.417500", "171737.792500", "171737.427500", "171737.802500", "171737.437500", "171737.815000", "171737.450000", "171737.825000", "171737.460000", "171737.835000", "171737.470000", "171737.847500", "171737.480000", "171737.857500", "171737.492500", "171737.867500", "171737.502500", "171737.880000", "171737.512500"], "ContentTime": ["171958.890000", "171958.796000", "171958.890000", "171958.796000", "171958.890000", "171958.796000", "171958.890000", "171958.796000", "171958.906000", "171958.796000", "171958.906000", "171958.796000", "171958.906000", "171958.812000", "171958.906000", "171958.812000", "171958.906000", "171958.812000", "171958.921000", "171958.812000", "171958.921000", "171958.812000", "171958.921000", "171958.828000", "171958.921000", "171958.828000", "171958.921000", "171958.828000", "171958.921000", "171958.828000", "171958.937000", "171958.828000", "171958.937000", "171958.828000", "171958.937000", "171958.843000", "171958.953000", "171958.843000", "171958.953000", "171958.843000", "171958.953000", "171958.843000", "171958.953000", "171958.843000", "171958.953000", "171958.859000", "171958.968000", "171958.859000", "171958.968000", "171958.859000", "171958.968000", "171958.859000", "171958.968000", "171958.859000", "171958.968000", "171958.875000", "171958.968000", "171958.875000", "171958.984000", "171958.875000", "171958.984000", "171958.875000", "171958.984000", "171958.875000", "171958.984000", "171958.890000", "171958.984000", "171958.890000"], "CsaImage.GSWDDataType": ["measured", "predicted", "measured", "predicted", "measured", "predicted", "measured", "predicted", "measured", "predicted", "measured", "predicted", "measured", "predicted", "measured", "predicted", "measured", "predicted", "measured", "predicted", "measured", "predicted", "measured", "predicted", "measured", "predicted", "measured", "predicted", "measured", "predicted", "measured", "predicted", "measured", "predicted", "measured", "predicted", "measured", "predicted", "measured", "predicted", "measured", "predicted", "measured", "predicted", "measured", "predicted", "measured", "predicted", "measured", "predicted", "measured", "predicted", "measured", "predicted", "measured", "predicted", "measured", "measured", "measured", "measured", "measured", "measured", "measured", "measured", "measured", "measured", "measured", "measured"], "CsaImage.ICE_Dims": ["X_2_1_1_1_1_1_35_1_1_1_1_502", "X_2_1_1_1_1_1_1_1_1_2_1_502", "X_2_1_1_1_1_1_36_1_1_3_1_502", "X_2_1_1_1_1_1_2_1_1_4_1_502", "X_2_1_1_1_1_1_37_1_1_5_1_502", "X_2_1_1_1_1_1_3_1_1_6_1_502", "X_2_1_1_1_1_1_38_1_1_7_1_502", "X_2_1_1_1_1_1_4_1_1_8_1_502", "X_2_1_1_1_1_1_39_1_1_9_1_502", "X_2_1_1_1_1_1_5_1_1_10_1_502", "X_2_1_1_1_1_1_40_1_1_11_1_502", "X_2_1_1_1_1_1_6_1_1_12_1_502", "X_2_1_1_1_1_1_41_1_1_13_1_502", "X_2_1_1_1_1_1_7_1_1_14_1_502", "X_2_1_1_1_1_1_42_1_1_15_1_502", "X_2_1_1_1_1_1_8_1_1_16_1_502", "X_2_1_1_1_1_1_43_1_1_17_1_502", "X_2_1_1_1_1_1_9_1_1_18_1_502", "X_2_1_1_1_1_1_44_1_1_19_1_502", "X_2_1_1_1_1_1_10_1_1_20_1_502", "X_2_1_1_1_1_1_45_1_1_21_1_502", "X_2_1_1_1_1_1_11_1_1_22_1_502", "X_2_1_1_1_1_1_46_1_1_23_1_502", "X_2_1_1_1_1_1_12_1_1_24_1_502", "X_2_1_1_1_1_1_47_1_1_25_1_502", "X_2_1_1_1_1_1_13_1_1_26_1_502", "X_2_1_1_1_1_1_48_1_1_27_1_502", "X_2_1_1_1_1_1_14_1_1_28_1_502", "X_2_1_1_1_1_1_49_1_1_29_1_502", "X_2_1_1_1_1_1_15_1_1_30_1_502", "X_2_1_1_1_1_1_50_1_1_31_1_502", "X_2_1_1_1_1_1_16_1_1_32_1_502", "X_2_1_1_1_1_1_51_1_1_33_1_502", "X_2_1_1_1_1_1_17_1_1_34_1_502", "X_2_1_1_1_1_1_52_1_1_35_1_502", "X_2_1_1_1_1_1_18_1_1_36_1_502", "X_2_1_1_1_1_1_53_1_1_37_1_502", "X_2_1_1_1_1_1_19_1_1_38_1_502", "X_2_1_1_1_1_1_54_1_1_39_1_502", "X_2_1_1_1_1_1_20_1_1_40_1_502", "X_2_1_1_1_1_1_55_1_1_41_1_502", "X_2_1_1_1_1_1_21_1_1_42_1_502", "X_2_1_1_1_1_1_56_1_1_43_1_502", "X_2_1_1_1_1_1_22_1_1_44_1_502", "X_2_1_1_1_1_1_57_1_1_45_1_502", "X_2_1_1_1_1_1_23_1_1_46_1_502", "X_2_1_1_1_1_1_58_1_1_47_1_502", "X_2_1_1_1_1_1_24_1_1_48_1_502", "X_2_1_1_1_1_1_59_1_1_49_1_502", "X_2_1_1_1_1_1_25_1_1_50_1_502", "X_2_1_1_1_1_1_60_1_1_51_1_502", "X_2_1_1_1_1_1_26_1_1_52_1_502", "X_2_1_1_1_1_1_61_1_1_53_1_502", "X_2_1_1_1_1_1_27_1_1_54_1_502", "X_2_1_1_1_1_1_62_1_1_55_1_502", "X_2_1_1_1_1_1_28_1_1_56_1_502", "X_2_1_1_1_1_1_63_1_1_57_1_502", "X_2_1_1_1_1_1_29_1_1_58_1_502", "X_2_1_1_1_1_1_64_1_1_59_1_502", "X_2_1_1_1_1_1_30_1_1_60_1_502", "X_2_1_1_1_1_1_65_1_1_61_1_502", "X_2_1_1_1_1_1_31_1_1_62_1_502", "X_2_1_1_1_1_1_66_1_1_63_1_502", "X_2_1_1_1_1_1_32_1_1_64_1_502", "X_2_1_1_1_1_1_67_1_1_65_1_502", "X_2_1_1_1_1_1_33_1_1_66_1_502", "X_2_1_1_1_1_1_68_1_1_67_1_502", "X_2_1_1_1_1_1_34_1_1_68_1_502"], "CsaImage.ProtocolSliceNumber": [0, 1, 2, 3, 4, 5, 6, 7, 8, 9, 10, 11, 12, 13, 14, 15, 16, 17, 18, 19, 20, 21, 22, 23, 24, 25, 26, 27, 28, 29, 30, 31, 32, 33, 34, 35, 36, 37, 38, 39, 40, 41, 42, 43, 44, 45, 46, 47, 48, 49, 50, 51, 52, 53, 54, 55, 56, 57, 58, 59, 60, 61, 62, 63, 64, 65, 66, 67], "CsaImage.RFSWDDataType": ["measured", "predicted", "measured", "predicted", "measured", "predicted", "measured", "predicted", "measured", "predicted", "measured", "predicted", "measured", "predicted", "measured", "predicted", "measured", "predicted", "measured", "predicted", "measured", "predicted", "measured", "predicted", "measured", "predicted", "measured", "predicted", "measured", "predicted", "measured", "predicted", "measured", "predicted", "measured", "predicted", "measured", "predicted", "measured", "predicted", "measured", "predicted", "measured", "predicted", "measured", "predicted", "measured", "predicted", "measured", "predicted", "measured", "predicted", "measured", "predicted", "measured", "measured", "measured", "measured", "measured", "measured", "measured", "measured", "measured", "measured", "measured", "measured", "measured", "measured"], "CsaImage.SlicePosition_PCS": [[-116.52626592, -126.27866787, 27.49349337], [-116.62676746, -124.75341839, 29.34377032], [-116.727269, -123.22816891, 31.19404345], [-116.82777054, -121.70291943, 33.04431658], [-116.92827207, -120.17767186, 34.89459353], [-117.02877361, -118.65242238, 36.74486666], [-117.12927539, -117.1271748, 38.5951417], [-117.22977692, -115.60192532, 40.44541674], [-117.33027846, -114.07667775, 42.29569178], [-117.43078, -112.55142827, 44.14596491], [-117.53128154, -111.02617878, 45.99623995], [-117.63178307, -109.50093121, 47.84651499], [-117.73228461, -107.97568268, 49.69679003], [-117.83278639, -106.45043416, 51.54706316], [-117.93328792, -104.92518467, 53.3973382], [-118.03378946, -103.39993615, 55.24761324], [-118.134291, -101.87468762, 57.09788733], [-118.23479254, -100.34943909, 58.94816237], [-118.33529407, -98.82419056, 60.79843645], [-118.43579561, -97.29894204, 62.64871102], [-118.53629715, -95.77369327, 64.49898558], [-118.63679892, -94.2484445, 66.34926014], [-118.73730022, -92.72319586, 68.19953482], [-118.83780176, -91.19794721, 70.04980939], [-118.93830377, -89.67269845, 71.90008407], [-119.03880531, -88.14744992, 73.75035839], [-119.13930685, -86.62220139, 75.60063296], [-119.23980839, -85.09695239, 77.45090752], [-119.34030992, -83.57170434, 79.30118208], [-119.44081146, -82.04645485, 81.15145712], [-119.541313, -80.52120633, 83.00173121], [-119.64181453, -78.9959578, 84.85200625], [-119.74231607, -77.47070927, 86.70228129], [-119.84281761, -75.94545979, 88.55255442], [-119.94331915, -74.42021222, 90.40282946], [-120.04382068, -72.89496274, 92.2531045], [-120.14432222, -71.36971516, 94.10337954], [-120.24482376, -69.84446568, 95.95365267], [-120.3453253, -68.31921811, 97.80392771], [-120.44582731, -66.79396862, 99.65420275], [-120.54632885, -65.26872105, 101.50447779], [-120.64683038, -63.74347157, 103.35475283], [-120.74733192, -62.21822209, 105.20502596], [-120.84783346, -60.69297451, 107.05529909], [-120.948335, -59.16772503, 108.90557604], [-121.04883653, -57.64247555, 110.75584917], [-121.14933807, -56.11722989, 112.60612612], [-121.24983961, -54.5919804, 114.45639925], [-121.35034115, -53.06673092, 116.30667238], [-121.45084268, -51.54148144, 118.15694933], [-121.55134422, -50.01623196, 120.00722246], [-121.65184576, -48.49098629, 121.8574956], [-121.7523473, -46.96573681, 123.70777254], [-121.85284883, -45.44048733, 125.55804568], [-121.95335037, -43.91523785, 127.40832262], [-122.05385238, -42.38999218, 129.25859575], [-122.15435392, -40.8647427, 131.10886889], [-122.25485546, -39.33949322, 132.95914583], [-122.355357, -37.81424374, 134.80942278], [-122.45585853, -36.28899426, 136.65969591], [-122.55636007, -34.76374859, 138.50996905], [-122.65686161, -33.23849911, 140.36024218], [-122.75736362, -31.71324963, 142.21051531], [-122.85786468, -30.18800015, 144.06078844], [-122.9583667, -28.66275067, 145.9110692], [-123.05886776, -27.13750119, 147.76134234], [-123.15936977, -25.61225552, 149.61161547], [-123.25987083, -24.08700985, 151.4618886]], "CsaImage.TimeAfterStart": [1.1, 0.735, 1.11, 0.745, 1.1225, 0.755, 1.1325, 0.7675, 1.1425, 0.7775, 1.155, 0.7875, 1.165, 0.8, 1.175, 0.81, 1.185, 0.82, 1.1975, 0.8325, 1.2075, 0.8425, 1.2175, 0.8525, 1.23, 0.8625, 1.24, 0.875, 1.25, 0.885, 1.2625, 0.895, 1.2725, 0.9075, 1.2825, 0.9175, 1.2925, 0.9275, 1.305, 0.94, 1.315, 0.95, 1.325, 0.96, 1.3375, 0.97, 1.3475, 0.9825, 1.3575, 0.9925, 1.37, 1.0025, 1.38, 1.015, 1.39, 1.025, 1.4, 1.035, 1.4125, 1.0475, 1.4225, 1.0575, 1.4325, 1.0675, 1.445, 1.0775, 1.455, 1.09], "ImagePositionPatient": [[-116.52626592379, -126.27866787422, 27.493493368343], [-116.62676746111, -124.75341839302, 29.343770315364], [-116.72726899843, -123.22816891182, 31.194043447688], [-116.82777053575, -121.70291943062, 33.044316580013], [-116.92827207308, -120.17767185677, 34.894593527034], [-117.0287736104, -118.65242237557, 36.744866659358], [-117.12927538614, -117.12717480171, 38.595141699031], [-117.22977692346, -115.60192532051, 40.445416738704], [-117.33027846079, -114.07667774666, 42.295691778377], [-117.43077999811, -112.55142826546, 44.145964910701], [-117.53128153543, -111.02617878426, 45.996239950374], [-117.63178307276, -109.5009312104, 47.846514990047], [-117.73228461008, -107.97568268288, 49.69679002972], [-117.83278638582, -106.45043415535, 51.547063162044], [-117.93328792314, -104.92518467415, 53.397338201717], [-118.03378946047, -103.39993614662, 55.247613241389], [-118.13429099779, -101.8746876191, 57.097887327388], [-118.23479253511, -100.34943909157, 58.948162367061], [-118.33529407244, -98.824190564042, 60.798436453059], [-118.43579560976, -97.298942036515, 62.648711015895], [-118.53629714708, -95.77369327057, 64.498985578731], [-118.63679892282, -94.248444504624, 66.349260141566], [-118.73730022173, -92.723195857888, 68.199534823611], [-118.83780175905, -91.197947211152, 70.049809386447], [-118.93830377321, -89.672698445206, 71.900084068492], [-119.03880531053, -88.14744991768, 73.750358392909], [-119.13930684786, -86.622201390153, 75.600632955745], [-119.23980838518, -85.096952385789, 77.450907518581], [-119.3403099225, -83.571704335099, 79.301182081416], [-119.44081145983, -82.046454853898, 81.151457121089], [-119.54131299715, -80.521206326371, 83.001731207088], [-119.64181453447, -78.995957798844, 84.852006246761], [-119.7423160718, -77.470709271317, 86.702281286433], [-119.84281760912, -75.945459790116, 88.552554418758], [-119.94331914644, -74.420212216264, 90.40282945843], [-120.04382068376, -72.894962735062, 92.253104498103], [-120.14432222109, -71.36971516121, 94.103379537776], [-120.24482375841, -69.844465680009, 95.9536526701], [-120.34532529573, -68.319218106156, 97.803927709773], [-120.44582730989, -66.793968624955, 99.654202749446], [-120.54632884722, -65.268721051102, 101.50447778912], [-120.64683038454, -63.743471569901, 103.35475282879], [-120.74733192186, -62.2182220887, 105.20502596112], [-120.84783345919, -60.692974514847, 107.05529909344], [-120.94833499651, -59.167725033646, 108.90557604046], [-121.04883653383, -57.642475552445, 110.75584917279], [-121.14933807115, -56.117229885941, 112.60612611981], [-121.24983960848, -54.59198040474, 114.45639925213], [-121.3503411458, -53.066730923539, 116.30667238446], [-121.45084268312, -51.541481442338, 118.15694933148], [-121.55134422045, -50.016231961137, 120.0072224638], [-121.65184575777, -48.490986294633, 121.85749559613], [-121.75234729509, -46.965736813431, 123.70777254315], [-121.85284883242, -45.44048733223, 125.55804567547], [-121.95335036974, -43.915237851029, 127.40832262249], [-122.0538523839, -42.389992184525, 129.25859575482], [-122.15435392122, -40.864742703324, 131.10886888714], [-122.25485545854, -39.339493222123, 132.95914583416], [-122.35535699587, -37.814243740922, 134.80942278118], [-122.45585853319, -36.288994259721, 136.65969591351], [-122.55636007051, -34.763748593217, 138.50996904583], [-122.65686160784, -33.238499112015, 140.36024217816], [-122.757363622, -31.713249630814, 142.21051531048], [-122.85786468248, -30.188000149613, 144.06078844281], [-122.95836669664, -28.662750668412, 145.91106920452], [-123.05886775713, -27.137501187211, 147.76134233685], [-123.15936977129, -25.612255520707, 149.61161546917], [-123.25987083177, -24.087009854203, 151.4618886015]], "InstanceCreationTime": ["171958.890000", "171958.796000", "171958.890000", "171958.796000", "171958.890000", "171958.796000", "171958.890000", "171958.796000", "171958.906000", "171958.796000", "171958.906000", "171958.796000", "171958.906000", "171958.812000", "171958.906000", "171958.812000", "171958.906000", "171958.812000", "171958.921000", "171958.812000", "171958.921000", "171958.812000", "171958.921000", "171958.828000", "171958.921000", "171958.828000", "171958.921000", "171958.828000", "171958.921000", "171958.828000", "171958.937000", "171958.828000", "171958.937000", "171958.828000", "171958.937000", "171958.843000", "171958.953000", "171958.843000", "171958.953000", "171958.843000", "171958.953000", "171958.843000", "171958.953000", "171958.843000", "171958.953000", "171958.859000", "171958.968000", "171958.859000", "171958.968000", "171958.859000", "171958.968000", "171958.859000", "171958.968000", "171958.859000", "171958.968000", "171958.875000", "171958.968000", "171958.875000", "171958.984000", "171958.875000", "171958.984000", "171958.875000", "171958.984000", "171958.875000", "171958.984000", "171958.890000", "171958.984000", "171958.890000"], "InstanceNumber": [1, 2, 3, 4, 5, 6, 7, 8, 9, 10, 11, 12, 13, 14, 15, 16, 17, 18, 19, 20, 21, 22, 23, 24, 25, 26, 27, 28, 29, 30, 31, 32, 33, 34, 35, 36, 37, 38, 39, 40, 41, 42, 43, 44, 45, 46, 47, 48, 49, 50, 51, 52, 53, 54, 55, 56, 57, 58, 59, 60, 61, 62, 63, 64, 65, 66, 67, 68], "LargestImagePixelValue": [4094, 4093, 4094, 4094, 4094, 4094, 4094, 4094, 4093, 4094, 4094, 4094, 4094, 4092, 4094, 4094, 4094, 4093, 4093, 4094, 4093, 4093, 4094, 4094, 4094, 4093, 4094, 4093, 4094, 4093, 4094, 4094, 4094, 4085, 4091, 4094, 4090, 4089, 4092, 4090, 4093, 4093, 4093, 4092, 4092, 4094, 4094, 4094, 4091, 4094, 4094, 4092, 4091, 4089, 4093, 4094, 4094, 4094, 4093, 4094, 4094, 4094, 4094, 4094, 4094, 4094, 4090, 4094], "SliceLocation": [-54.176994638517, -51.776992280271, -49.376992862957, -46.976993445643, -44.576992299555, -42.176992882241, -39.776993196636, -37.376992308856, -34.976992633235, -32.576993215921, -30.176992328141, -27.77699265252, -25.376992370819, -22.9769935496, -20.57699266182, -18.17699238012, -15.776992833652, -13.376992551951, -10.976993005484, -8.5769930913996, -6.1769930257956, -3.7769929502077, -1.3769928784434, 1.0230071114006, 3.4230072888766, 5.8230070191525, 8.2230069332367, 10.62300715036, 13.023006761405, 15.423007649185, 17.823007195653, 20.223007477353, 22.623007759054, 25.023007176368, 27.423006851989, 29.823007739769, 32.223007415391, 34.623006832705, 37.023006508326, 39.423007416074, 41.823007091695, 44.223007979475, 46.623007396789, 49.023005601944, 51.42300796019, 53.823007377504, 56.223007311433, 58.623006728747, 61.023006146061, 63.423008504307, 65.823007921621, 68.223004914617, 70.623007272864, 73.023006690178, 75.423009048424, 77.823006061388, 80.223005478702, 82.623007836948, 85.023010195194, 87.423009612508, 89.823006605505, 92.223006022819, 94.6230054601, 97.023004857446, 99.423010176593, 101.82300957394, 104.2230065869, 106.62300355993], "SmallestImagePixelValue": [0, 1, 0, 0, 0, 0, 0, 0, 0, 0, 0, 0, 1, 0, 0, 1, 1, 0, 0, 0, 1, 3, 0, 1, 2, 0, 0, 0, 3, 4, 0, 5, 4, 9, 0, 0, 3, 8, 1, 3, 2, 5, 1, 0, 0, 0, 3, 3, 6, 0, 1, 1, 0, 0, 0, 3, 0, 3, 1, 2, 0, 0, 0, 1, 0, 1, 0, 1], "WindowCenter": [-68.0, -78.0, -94.0, -76.0, -124.0, -160.0, -178.0, -200.0, -358.0, -346.0, -352.0, -370.0, -386.0, -392.0, -384.0, -382.0, -362.0, -356.0, -328.0, -374.0, -324.0, -288.0, -284.0, -254.0, -248.0, -222.0, -194.0, -206.0, -292.0, -280.0, -270.0, -282.0, -228.0, -242.0, -258.0, -284.0, -280.0, -274.0, -236.0, -206.0, -194.0, -198.0, -204.0, -208.0, -206.0, -200.0, -214.0, -218.0, -230.0, -234.0, -206.0, -214.0, -198.0, -228.0, -166.0, -228.0, -224.0, -256.0, -252.0, -248.0, -274.0, -280.0, -340.0, -350.0, -384.0, -410.0, -436.0, -454.0], "WindowWidth": [6370.0, 6576.0, 6516.0, 6602.0, 6656.0, 6668.0, 6672.0, 6562.0, 6504.0, 6562.0, 6550.0, 6402.0, 6350.0, 6194.0, 6218.0, 6174.0, 6166.0, 6082.0, 6056.0, 5952.0, 5914.0, 5850.0, 5782.0, 5666.0, 5576.0, 5416.0, 5428.0, 5082.0, 4678.0, 4620.0, 4612.0, 4586.0, 4586.0, 4572.0, 4584.0, 4570.0, 4584.0, 4576.0, 4572.0, 4574.0, 4578.0, 4582.0, 4608.0, 4604.0, 4608.0, 4602.0, 4620.0, 4622.0, 4624.0, 4624.0, 4624.0, 4624.0, 4626.0, 4644.0, 4636.0, 4646.0, 4668.0, 4660.0, 4698.0, 4684.0, 4714.0, 4730.0, 4788.0, 4830.0, 4900.0, 4954.0, 5004.0, 5064.0]}}}