{
    "AcquisitionMatrixPE": 96,
    "AcquisitionNumber": 1,
    "AcquisitionTime": "07:40:50.142500",
    "BandwidthPerPixelPhaseEncode": 33.602,
    "BaseResolution": 96,
    "BodyPartExamined": "BRAIN",
    "ConsistencyInfo": "N4_VD11D_LATEST_20110129",
    "ConversionSoftware": "dcm2niix",
    "ConversionSoftwareVersion": "v1.0.20210317",
    "DerivedVendorReportedEchoSpacing": 0.000620003,
    "DeviceSerialNumber": "45239",
    "DwellTime": 2.6e-06,
    "EchoTime": 0.03,
    "EchoTrainLength": 48,
    "EffectiveEchoSpacing": 0.000310001,
    "FlipAngle": 63,
    "ImageComments": "Unaliased MB4/PE3",
    "ImageOrientationPatientDICOM": [
        0.999706,
        -0.0218387,
        0.0105572,
        0.0242566,
        0.900054,
        -0.435103
    ],
    "ImageType": [
        "ORIGINAL",
        "PRIMARY",
        "M",
        "ND",
        "NORM",
        "MOSAIC"
    ],
    "ImagingFrequency": 123.193,
    "InPlanePhaseEncodingDirectionDICOM": "COL",
    "InstitutionAddress": "E 24th St. 100,Austin,Southmiddle,US,78712",
    "InstitutionName": "Univ of Texas at Austin",
    "InstitutionalDepartmentName": "IRC",
    "MRAcquisitionType": "2D",
    "MagneticFieldStrength": 3,
    "Manufacturer": "Siemens",
    "ManufacturersModelName": "Skyra",
    "Modality": "MR",
    "MultibandAccelerationFactor": 4,
    "ParallelReductionFactorInPlane": 2,
    "PartialFourier": 1,
    "PatientPosition": "HFS",
    "PercentPhaseFOV": 100,
    "PercentSampling": 100,
    "PhaseEncodingDirection": "j-",
    "PhaseEncodingSteps": 96,
    "PhaseResolution": 1,
    "PixelBandwidth": 2005,
    "ProcedureStepDescription": "Poldrack2^self-scanning",
    "ProtocolName": "Resting State fMRI MBEPI_matrix96_BW2004",
    "PulseSequenceDetails": "%CustomerSeq%\\cmrr_mbep2d_bold",
    "ReceiveCoilActiveElements": "HEA;HEP",
    "ReceiveCoilName": "Head_32",
    "ReconMatrixPE": 96,
    "RefLinesPE": 94,
    "RepetitionTime": 1.16,
    "SAR": 0.0966624,
    "ScanOptions": "FS",
    "ScanningSequence": "EP",
    "SequenceName": "epfid2d1_96",
    "SequenceVariant": "SK",
    "SeriesDescription": "Resting State fMRI MBEPI_matrix96_BW2004",
    "SeriesNumber": 6,
    "ShimSetting": [
        -2777,
        8073,
        -15424,
        157,
        -247,
        161,
        184,
        -49
    ],
    "SliceThickness": 2,
    "SliceTiming": [
        0,
        0.5,
        0.9975,
        0.3575,
        0.855,
        0.215,
        0.7125,
        0.0725,
        0.57,
        1.07,
        0.4275,
        0.9275,
        0.285,
        0.785,
        0.1425,
        0.6425,
        0,
        0.5,
        0.9975,
        0.3575,
        0.855,
        0.215,
        0.7125,
        0.0725,
        0.57,
        1.07,
        0.4275,
        0.9275,
        0.285,
        0.785,
        0.1425,
        0.6425,
        0,
        0.5,
        0.9975,
        0.3575,
        0.855,
        0.215,
        0.7125,
        0.0725,
        0.57,
        1.07,
        0.4275,
        0.9275,
        0.285,
        0.785,
        0.1425,
        0.6425,
        0,
        0.5,
        0.9975,
        0.3575,
        0.855,
        0.215,
        0.7125,
        0.0725,
        0.57,
        1.07,
        0.4275,
        0.9275,
        0.285,
        0.785,
        0.1425,
        0.6425
    ],
    "SoftwareVersions": "syngo MR D11",
    "SpacingBetweenSlices": 2.4,
    "StationName": "AWP45239",
    "TaskName": "Resting fmri",
    "TotalReadoutTime": 0.0294501,
    "TxRefAmp": 333.221,
    "WipMemBlock": "2326ea43-181b-45cc-8d7d-20dd6a4bb3b8||Sequence: VD11D r206; Feb 13 2013 18:52:04 by eja",
    "dcmmeta_affine": [
        [
            -2.3951282501220703,
            0.05811481177806854,
            -2.7177533112876517e-08,
            115.190185546875
        ],
        [
            0.052321866154670715,
            2.156378984451294,
            -1.0445547103881836,
            -86.80513000488281
        ],
        [
            0.025293350219726562,
            1.0424343347549438,
            2.1607649326324463,
            -81.00567626953125
        ],
        [
            0.0,
            0.0,
            0.0,
            1.0
        ]
    ],
    "dcmmeta_reorient_transform": [
        [
            0.0,
            -1.0,
            0.0,
            95.0
        ],
        [
            1.0,
            0.0,
            0.0,
            0.0
        ],
        [
            0.0,
            0.0,
            1.0,
            0.0
        ],
        [
            0.0,
            0.0,
            0.0,
            1.0
        ]
    ],
    "dcmmeta_shape": [
        96,
        96,
        64,
        518
    ],
    "dcmmeta_slice_dim": 2,
    "dcmmeta_version": 0.6,
    "global": {
        "const": {
            "AcquisitionMatrix": [
                96,
                0,
                0,
                96
            ],
            "AngioFlag": "N",
            "BitsAllocated": 16,
            "BitsStored": 16,
            "BodyPartExamined": "BRAIN",
            "Columns": 768,
            "EchoNumbers": 1,
            "EchoTime": 30.0,
            "EchoTrainLength": 48,
            "FlipAngle": 63.0,
            "HighBit": 15,
            "ImageOrientationPatient": [
                0.99970576495021,
                -0.021838693451,
                0.01055722471459,
                0.02425661817564,
                0.90005385974557,
                -0.4351030521977
            ],
            "ImagePositionPatient": [
                -945.00078458203,
                -825.01405946031,
                359.7849681526
            ],
            "ImageType": [
                "ORIGINAL",
                "PRIMARY",
                "M",
                "ND",
                "NORM",
                "MOSAIC"
            ],
            "ImagedNucleus": "1H",
            "ImagingFrequency": 123.193253,
            "InPlanePhaseEncodingDirection": "COL",
            "MRAcquisitionType": "2D",
            "MagneticFieldStrength": 3.0,
            "Manufacturer": "SIEMENS",
            "ManufacturerModelName": "Skyra",
            "Modality": "MR",
            "NumberOfAverages": 1.0,
            "NumberOfPhaseEncodingSteps": 96,
            "PercentPhaseFieldOfView": 100.0,
            "PercentSampling": 100.0,
            "PerformedProcedureStepStartTime": "073324.890000",
            "PhotometricInterpretation": "MONOCHROME2",
            "PixelBandwidth": 2005.0,
            "PixelRepresentation": 0,
            "PixelSpacing": [
                2.3958332538605,
                2.3958332538605
            ],
            "ProtocolName": "Resting State fMRI MBEPI_matrix96_BW2004",
            "RepetitionTime": 1160.0,
            "Rows": 768,
            "SAR": 0.09666242838918,
            "SamplesPerPixel": 1,
            "ScanOptions": "FS",
            "ScanningSequence": "EP",
            "SequenceName": "epfid2d1_96",
            "SequenceVariant": "SK",
            "SeriesDescription": "Resting State fMRI MBEPI_matrix96_BW2004",
            "SeriesNumber": 6,
            "SeriesTime": "074128.890000",
            "SliceLocation": -35.150639114046,
            "SliceThickness": 2.0,
            "SmallestImagePixelValue": 0,
            "SoftwareVersions": "syngo MR D11",
            "SpacingBetweenSlices": 2.3999999766311,
            "SpecificCharacterSet": "ISO_IR 100",
            "StudyID": "1",
            "StudyTime": "073324.859000",
            "TransmitCoilName": "Body",
            "VariableFlipAngleFlag": "N",
            "WindowCenterWidthExplanation": "Algo1",
            "dBdt": 0.0
        },
        "slices": {}
    },
    "time": {
        "samples": {
            "AcquisitionNumber": [
                1,
                2,
                3,
                4,
                5,
                6,
                7,
                8,
                9,
                10,
                11,
                12,
                13,
                14,
                15,
                16,
                17,
                18,
                19,
                20,
                21,
                22,
                23,
                24,
                25,
                26,
                27,
                28,
                29,
                30,
                31,
                32,
                33,
                34,
                35,
                36,
                37,
                38,
                39,
                40,
                41,
                42,
                43,
                44,
                45,
                46,
                47,
                48,
                49,
                50,
                51,
                52,
                53,
                54,
                55,
                56,
                57,
                58,
                59,
                60,
                61,
                62,
                63,
                64,
                65,
                66,
                67,
                68,
                69,
                70,
                71,
                72,
                73,
                74,
                75,
                76,
                77,
                78,
                79,
                80,
                81,
                82,
                83,
                84,
                85,
                86,
                87,
                88,
                89,
                90,
                91,
                92,
                93,
                94,
                95,
                96,
                97,
                98,
                99,
                100,
                101,
                102,
                103,
                104,
                105,
                106,
                107,
                108,
                109,
                110,
                111,
                112,
                113,
                114,
                115,
                116,
                117,
                118,
                119,
                120,
                121,
                122,
                123,
                124,
                125,
                126,
                127,
                128,
                129,
                130,
                131,
                132,
                133,
                134,
                135,
                136,
                137,
                138,
                139,
                140,
                141,
                142,
                143,
                144,
                145,
                146,
                147,
                148,
                149,
                150,
                151,
                152,
                153,
                154,
                155,
                156,
                157,
                158,
                159,
                160,
                161,
                162,
                163,
                164,
                165,
                166,
                167,
                168,
                169,
                170,
                171,
                172,
                173,
                174,
                175,
                176,
                177,
                178,
                179,
                180,
                181,
                182,
                183,
                184,
                185,
                186,
                187,
                188,
                189,
                190,
                191,
                192,
                193,
                194,
                195,
                196,
                197,
                198,
                199,
                200,
                201,
                202,
                203,
                204,
                205,
                206,
                207,
                208,
                209,
                210,
                211,
                212,
                213,
                214,
                215,
                216,
                217,
                218,
                219,
                220,
                221,
                222,
                223,
                224,
                225,
                226,
                227,
                228,
                229,
                230,
                231,
                232,
                233,
                234,
                235,
                236,
                237,
                238,
                239,
                240,
                241,
                242,
                243,
                244,
                245,
                246,
                247,
                248,
                249,
                250,
                251,
                252,
                253,
                254,
                255,
                256,
                257,
                258,
                259,
                260,
                261,
                262,
                263,
                264,
                265,
                266,
                267,
                268,
                269,
                270,
                271,
                272,
                273,
                274,
                275,
                276,
                277,
                278,
                279,
                280,
                281,
                282,
                283,
                284,
                285,
                286,
                287,
                288,
                289,
                290,
                291,
                292,
                293,
                294,
                295,
                296,
                297,
                298,
                299,
                300,
                301,
                302,
                303,
                304,
                305,
                306,
                307,
                308,
                309,
                310,
                311,
                312,
                313,
                314,
                315,
                316,
                317,
                318,
                319,
                320,
                321,
                322,
                323,
                324,
                325,
                326,
                327,
                328,
                329,
                330,
                331,
                332,
                333,
                334,
                335,
                336,
                337,
                338,
                339,
                340,
                341,
                342,
                343,
                344,
                345,
                346,
                347,
                348,
                349,
                350,
                351,
                352,
                353,
                354,
                355,
                356,
                357,
                358,
                359,
                360,
                361,
                362,
                363,
                364,
                365,
                366,
                367,
                368,
                369,
                370,
                371,
                372,
                373,
                374,
                375,
                376,
                377,
                378,
                379,
                380,
                381,
                382,
                383,
                384,
                385,
                386,
                387,
                388,
                389,
                390,
                391,
                392,
                393,
                394,
                395,
                396,
                397,
                398,
                399,
                400,
                401,
                402,
                403,
                404,
                405,
                406,
                407,
                408,
                409,
                410,
                411,
                412,
                413,
                414,
                415,
                416,
                417,
                418,
                419,
                420,
                421,
                422,
                423,
                424,
                425,
                426,
                427,
                428,
                429,
                430,
                431,
                432,
                433,
                434,
                435,
                436,
                437,
                438,
                439,
                440,
                441,
                442,
                443,
                444,
                445,
                446,
                447,
                448,
                449,
                450,
                451,
                452,
                453,
                454,
                455,
                456,
                457,
                458,
                459,
                460,
                461,
                462,
                463,
                464,
                465,
                466,
                467,
                468,
                469,
                470,
                471,
                472,
                473,
                474,
                475,
                476,
                477,
                478,
                479,
                480,
                481,
                482,
                483,
                484,
                485,
                486,
                487,
                488,
                489,
                490,
                491,
                492,
                493,
                494,
                495,
                496,
                497,
                498,
                499,
                500,
                501,
                502,
                503,
                504,
                505,
                506,
                507,
                508,
                509,
                510,
                511,
                512,
                513,
                514,
                515,
                516,
                517,
                518
            ],
            "AcquisitionTime": [
                "074050.142500",
                "074119.140000",
                "074120.300000",
                "074121.460000",
                "074122.620000",
                "074123.780000",
                "074124.940000",
                "074126.100000",
                "074127.260000",
                "074128.420000",
                "074129.580000",
                "074130.740000",
                "074131.900000",
                "074133.060000",
                "074134.220000",
                "074135.380000",
                "074136.540000",
                "074137.700000",
                "074138.860000",
                "074140.020000",
                "074141.180000",
                "074142.340000",
                "074143.502500",
                "074144.662500",
                "074145.822500",
                "074146.982500",
                "074148.142500",
                "074149.302500",
                "074150.462500",
                "074151.622500",
                "074152.782500",
                "074153.942500",
                "074155.102500",
                "074156.262500",
                "074157.422500",
                "074158.582500",
                "074159.742500",
                "074200.902500",
                "074202.062500",
                "074203.222500",
                "074204.382500",
                "074205.542500",
                "074206.702500",
                "074207.862500",
                "074209.022500",
                "074210.182500",
                "074211.342500",
                "074212.502500",
                "074213.662500",
                "074214.822500",
                "074215.982500",
                "074217.142500",
                "074218.302500",
                "074219.462500",
                "074220.622500",
                "074221.782500",
                "074222.942500",
                "074224.102500",
                "074225.262500",
                "074226.422500",
                "074227.582500",
                "074228.742500",
                "074229.902500",
                "074231.062500",
                "074232.222500",
                "074233.382500",
                "074234.542500",
                "074235.702500",
                "074236.862500",
                "074238.022500",
                "074239.182500",
                "074240.342500",
                "074241.502500",
                "074242.662500",
                "074243.822500",
                "074244.982500",
                "074246.142500",
                "074247.302500",
                "074248.462500",
                "074249.622500",
                "074250.782500",
                "074251.942500",
                "074253.102500",
                "074254.262500",
                "074255.422500",
                "074256.582500",
                "074257.742500",
                "074258.902500",
                "074300.062500",
                "074301.222500",
                "074302.382500",
                "074303.542500",
                "074304.702500",
                "074305.862500",
                "074307.022500",
                "074308.182500",
                "074309.342500",
                "074310.502500",
                "074311.662500",
                "074312.822500",
                "074313.982500",
                "074315.142500",
                "074316.302500",
                "074317.462500",
                "074318.622500",
                "074319.782500",
                "074320.942500",
                "074322.102500",
                "074323.262500",
                "074324.422500",
                "074325.582500",
                "074326.742500",
                "074327.902500",
                "074329.062500",
                "074330.222500",
                "074331.382500",
                "074332.542500",
                "074333.702500",
                "074334.862500",
                "074336.022500",
                "074337.182500",
                "074338.342500",
                "074339.502500",
                "074340.662500",
                "074341.822500",
                "074342.982500",
                "074344.142500",
                "074345.302500",
                "074346.462500",
                "074347.622500",
                "074348.782500",
                "074349.942500",
                "074351.102500",
                "074352.262500",
                "074353.422500",
                "074354.582500",
                "074355.742500",
                "074356.902500",
                "074358.062500",
                "074359.222500",
                "074400.382500",
                "074401.542500",
                "074402.702500",
                "074403.862500",
                "074405.022500",
                "074406.182500",
                "074407.342500",
                "074408.502500",
                "074409.662500",
                "074410.822500",
                "074411.982500",
                "074413.142500",
                "074414.302500",
                "074415.462500",
                "074416.622500",
                "074417.782500",
                "074418.942500",
                "074420.102500",
                "074421.262500",
                "074422.422500",
                "074423.582500",
                "074424.742500",
                "074425.902500",
                "074427.062500",
                "074428.222500",
                "074429.382500",
                "074430.542500",
                "074431.702500",
                "074432.862500",
                "074434.022500",
                "074435.182500",
                "074436.342500",
                "074437.502500",
                "074438.662500",
                "074439.822500",
                "074440.982500",
                "074442.142500",
                "074443.302500",
                "074444.462500",
                "074445.622500",
                "074446.782500",
                "074447.942500",
                "074449.102500",
                "074450.262500",
                "074451.422500",
                "074452.582500",
                "074453.742500",
                "074454.902500",
                "074456.062500",
                "074457.222500",
                "074458.382500",
                "074459.542500",
                "074500.702500",
                "074501.862500",
                "074503.022500",
                "074504.182500",
                "074505.342500",
                "074506.502500",
                "074507.662500",
                "074508.822500",
                "074509.982500",
                "074511.142500",
                "074512.302500",
                "074513.462500",
                "074514.622500",
                "074515.782500",
                "074516.942500",
                "074518.102500",
                "074519.262500",
                "074520.422500",
                "074521.582500",
                "074522.742500",
                "074523.902500",
                "074525.062500",
                "074526.222500",
                "074527.382500",
                "074528.542500",
                "074529.702500",
                "074530.862500",
                "074532.022500",
                "074533.182500",
                "074534.342500",
                "074535.502500",
                "074536.662500",
                "074537.822500",
                "074538.982500",
                "074540.142500",
                "074541.302500",
                "074542.462500",
                "074543.622500",
                "074544.782500",
                "074545.942500",
                "074547.102500",
                "074548.262500",
                "074549.422500",
                "074550.582500",
                "074551.742500",
                "074552.902500",
                "074554.062500",
                "074555.222500",
                "074556.382500",
                "074557.542500",
                "074558.702500",
                "074559.862500",
                "074601.022500",
                "074602.182500",
                "074603.342500",
                "074604.502500",
                "074605.662500",
                "074606.822500",
                "074607.982500",
                "074609.142500",
                "074610.302500",
                "074611.462500",
                "074612.622500",
                "074613.782500",
                "074614.942500",
                "074616.102500",
                "074617.262500",
                "074618.422500",
                "074619.582500",
                "074620.742500",
                "074621.902500",
                "074623.062500",
                "074624.222500",
                "074625.382500",
                "074626.542500",
                "074627.702500",
                "074628.862500",
                "074630.022500",
                "074631.182500",
                "074632.342500",
                "074633.505000",
                "074634.665000",
                "074635.825000",
                "074636.985000",
                "074638.145000",
                "074639.305000",
                "074640.465000",
                "074641.625000",
                "074642.785000",
                "074643.945000",
                "074645.105000",
                "074646.265000",
                "074647.425000",
                "074648.585000",
                "074649.745000",
                "074650.905000",
                "074652.065000",
                "074653.225000",
                "074654.385000",
                "074655.545000",
                "074656.705000",
                "074657.865000",
                "074659.025000",
                "074700.185000",
                "074701.345000",
                "074702.505000",
                "074703.665000",
                "074704.825000",
                "074705.985000",
                "074707.145000",
                "074708.305000",
                "074709.465000",
                "074710.625000",
                "074711.785000",
                "074712.945000",
                "074714.105000",
                "074715.265000",
                "074716.425000",
                "074717.585000",
                "074718.745000",
                "074719.905000",
                "074721.065000",
                "074722.225000",
                "074723.385000",
                "074724.545000",
                "074725.705000",
                "074726.865000",
                "074728.025000",
                "074729.185000",
                "074730.345000",
                "074731.505000",
                "074732.665000",
                "074733.825000",
                "074734.985000",
                "074736.145000",
                "074737.305000",
                "074738.465000",
                "074739.625000",
                "074740.785000",
                "074741.945000",
                "074743.105000",
                "074744.265000",
                "074745.425000",
                "074746.585000",
                "074747.745000",
                "074748.905000",
                "074750.065000",
                "074751.225000",
                "074752.385000",
                "074753.545000",
                "074754.705000",
                "074755.865000",
                "074757.025000",
                "074758.185000",
                "074759.345000",
