{
    "AcquisitionMatrixPE": 96,
    "AcquisitionNumber": 1,
    "AcquisitionTime": "07:42:45.105000",
    "BandwidthPerPixelPhaseEncode": 33.602,
    "BaseResolution": 96,
    "BodyPartExamined": "BRAIN",
    "ConsistencyInfo": "N4_VD11D_LATEST_20110129",
    "ConversionSoftware": "dcm2niix",
    "ConversionSoftwareVersion": "v1.0.20210317",
    "DerivedVendorReportedEchoSpacing": 0.000620003,
    "DeviceSerialNumber": "45239",
    "DwellTime": 2.6e-06,
    "EchoTime": 0.03,
    "EchoTrainLength": 48,
    "EffectiveEchoSpacing": 0.000310001,
    "FlipAngle": 63,
    "ImageComments": "Unaliased MB4/PE3",
    "ImageOrientationPatientDICOM": [
        0.999956,
        -0.00825264,
        0.00444358,
        0.00937291,
        0.880439,
        -0.474067
    ],
    "ImageType": [
        "ORIGINAL",
        "PRIMARY",
        "M",
        "ND",
        "NORM",
        "MOSAIC"
    ],
    "ImagingFrequency": 123.193,
    "InPlanePhaseEncodingDirectionDICOM": "COL",
    "InstitutionAddress": "E 24th St. 100,Austin,Southmiddle,US,78712",
    "InstitutionName": "Univ of Texas at Austin",
    "InstitutionalDepartmentName": "IRC",
    "MRAcquisitionType": "2D",
    "MagneticFieldStrength": 3,
    "Manufacturer": "Siemens",
    "ManufacturersModelName": "Skyra",
    "Modality": "MR",
    "MultibandAccelerationFactor": 4,
    "ParallelReductionFactorInPlane": 2,
    "PartialFourier": 1,
    "PatientPosition": "HFS",
    "PercentPhaseFOV": 100,
    "PercentSampling": 100,
    "PhaseEncodingDirection": "j-",
    "PhaseEncodingSteps": 96,
    "PhaseResolution": 1,
    "PixelBandwidth": 2005,
    "ProcedureStepDescription": "Poldrack2^self-scanning",
    "ProtocolName": "Resting State fMRI MBEPI_matrix96_BW2004",
    "PulseSequenceDetails": "%CustomerSeq%\\cmrr_mbep2d_bold",
    "ReceiveCoilActiveElements": "HEA;HEP",
    "ReceiveCoilName": "Head_32",
    "ReconMatrixPE": 96,
    "RefLinesPE": 94,
    "RepetitionTime": 1.16,
    "SAR": 0.0957458,
    "ScanOptions": "FS",
    "ScanningSequence": "EP",
    "SequenceName": "epfid2d1_96",
    "SequenceVariant": "SK",
    "SeriesDescription": "Resting State fMRI MBEPI_matrix96_BW2004",
    "SeriesNumber": 6,
    "ShimSetting": [
        -2787,
        8038,
        -15446,
        180,
        -204,
        138,
        266,
        -58
    ],
    "SliceThickness": 2,
    "SliceTiming": [
        0,
        0.5,
        0.9975,
        0.3575,
        0.855,
        0.215,
        0.7125,
        0.0725,
        0.57,
        1.07,
        0.4275,
        0.9275,
        0.285,
        0.785,
        0.1425,
        0.6425,
        0,
        0.5,
        0.9975,
        0.3575,
        0.855,
        0.215,
        0.7125,
        0.0725,
        0.57,
        1.07,
        0.4275,
        0.9275,
        0.285,
        0.785,
        0.1425,
        0.6425,
        0,
        0.5,
        0.9975,
        0.3575,
        0.855,
        0.215,
        0.7125,
        0.0725,
        0.57,
        1.07,
        0.4275,
        0.9275,
        0.285,
        0.785,
        0.1425,
        0.6425,
        0,
        0.5,
        0.9975,
        0.3575,
        0.855,
        0.215,
        0.7125,
        0.0725,
        0.57,
        1.07,
        0.4275,
        0.9275,
        0.285,
        0.785,
        0.1425,
        0.6425
    ],
    "SoftwareVersions": "syngo MR D11",
    "SpacingBetweenSlices": 2.4,
    "StationName": "AWP45239",
    "TaskName": "Resting fmri",
    "TotalReadoutTime": 0.0294501,
    "TxRefAmp": 333.641,
    "WipMemBlock": "1009ed35-1582-4c07-a4e6-d92765bd7c8e||Sequence: VD11D r206; Feb 13 2013 18:52:04 by eja",
    "dcmmeta_affine": [
        [
            -2.39572811126709,
            0.022455936297774315,
            -1.2348485789459573e-08,
            118.18222045898438
        ],
        [
            0.01977194845676422,
            2.109384298324585,
            -1.1378116607666016,
            -81.39998626708984
        ],
        [
            0.010646083392202854,
            1.1357864141464233,
            2.113145589828491,
            -86.89940643310547
        ],
        [
            0.0,
            0.0,
            0.0,
            1.0
        ]
    ],
    "dcmmeta_reorient_transform": [
        [
            0.0,
            -1.0,
            0.0,
            95.0
        ],
        [
            1.0,
            0.0,
            0.0,
            0.0
        ],
        [
            0.0,
            0.0,
            1.0,
            0.0
        ],
        [
            0.0,
            0.0,
            0.0,
            1.0
        ]
    ],
    "dcmmeta_shape": [
        96,
        96,
        64,
        518
    ],
    "dcmmeta_slice_dim": 2,
    "dcmmeta_version": 0.6,
    "global": {
        "const": {
            "AcquisitionMatrix": [
                96,
                0,
                0,
                96
            ],
            "AngioFlag": "N",
            "BitsAllocated": 16,
            "BitsStored": 16,
            "BodyPartExamined": "BRAIN",
            "Columns": 768,
            "EchoNumbers": 1,
            "EchoTime": 30.0,
            "EchoTrainLength": 48,
            "FlipAngle": 63.0,
            "HighBit": 15,
            "ImageOrientationPatient": [
                0.99995607328812,
                -0.0082526399154,
                0.00444358286073,
                0.00937291279237,
                0.88043867979877,
                -0.4740673787765
            ],
            "ImagePositionPatient": [
                -932.8253426906,
                -821.10126030946,
                399.04744633111
            ],
            "ImageType": [
                "ORIGINAL",
                "PRIMARY",
                "M",
                "ND",
                "NORM",
                "MOSAIC"
            ],
            "ImagedNucleus": "1H",
            "ImagingFrequency": 123.193373,
            "InPlanePhaseEncodingDirection": "COL",
            "MRAcquisitionType": "2D",
            "MagneticFieldStrength": 3.0,
            "Manufacturer": "SIEMENS",
            "ManufacturerModelName": "Skyra",
            "Modality": "MR",
            "NumberOfAverages": 1.0,
            "NumberOfPhaseEncodingSteps": 96,
            "PercentPhaseFieldOfView": 100.0,
            "PercentSampling": 100.0,
            "PerformedProcedureStepStartTime": "073042.390000",
            "PhotometricInterpretation": "MONOCHROME2",
            "PixelBandwidth": 2005.0,
            "PixelRepresentation": 0,
            "PixelSpacing": [
                2.3958332538605,
                2.3958332538605
            ],
            "ProtocolName": "Resting State fMRI MBEPI_matrix96_BW2004",
            "RepetitionTime": 1160.0,
            "Rows": 768,
            "SAR": 0.09574584190922,
            "SamplesPerPixel": 1,
            "ScanOptions": "FS",
            "ScanningSequence": "EP",
            "SequenceName": "epfid2d1_96",
            "SequenceVariant": "SK",
            "SeriesDescription": "Resting State fMRI MBEPI_matrix96_BW2004",
            "SeriesNumber": 6,
            "SeriesTime": "074323.265000",
            "SliceLocation": -37.922185912438,
            "SliceThickness": 2.0,
            "SmallestImagePixelValue": 0,
            "SoftwareVersions": "syngo MR D11",
            "SpacingBetweenSlices": 2.3999999810286,
            "SpecificCharacterSet": "ISO_IR 100",
            "StudyID": "1",
            "StudyTime": "073042.343000",
            "TransmitCoilName": "Body",
            "VariableFlipAngleFlag": "N",
            "WindowCenterWidthExplanation": "Algo1",
            "dBdt": 0.0
        },
        "slices": {}
    },
    "time": {
        "samples": {
            "AcquisitionNumber": [
                1,
                2,
                3,
                4,
                5,
                6,
                7,
                8,
                9,
                10,
                11,
                12,
                13,
                14,
                15,
                16,
                17,
                18,
                19,
                20,
                21,
                22,
                23,
                24,
                25,
                26,
                27,
                28,
                29,
                30,
                31,
                32,
                33,
                34,
                35,
                36,
                37,
                38,
                39,
                40,
                41,
                42,
                43,
                44,
                45,
                46,
                47,
                48,
                49,
                50,
                51,
                52,
                53,
                54,
                55,
                56,
                57,
                58,
                59,
                60,
                61,
                62,
                63,
                64,
                65,
                66,
                67,
                68,
                69,
                70,
                71,
                72,
                73,
                74,
                75,
                76,
                77,
                78,
                79,
                80,
                81,
                82,
                83,
                84,
                85,
                86,
                87,
                88,
                89,
                90,
                91,
                92,
                93,
                94,
                95,
                96,
                97,
                98,
                99,
                100,
                101,
                102,
                103,
                104,
                105,
                106,
                107,
                108,
                109,
                110,
                111,
                112,
                113,
                114,
                115,
                116,
                117,
                118,
                119,
                120,
                121,
                122,
                123,
                124,
                125,
                126,
                127,
                128,
                129,
                130,
                131,
                132,
                133,
                134,
                135,
                136,
                137,
                138,
                139,
                140,
                141,
                142,
                143,
                144,
                145,
                146,
                147,
                148,
                149,
                150,
                151,
                152,
                153,
                154,
                155,
                156,
                157,
                158,
                159,
                160,
                161,
                162,
                163,
                164,
                165,
                166,
                167,
                168,
                169,
                170,
                171,
                172,
                173,
                174,
                175,
                176,
                177,
                178,
                179,
                180,
                181,
                182,
                183,
                184,
                185,
                186,
                187,
                188,
                189,
                190,
                191,
                192,
                193,
                194,
                195,
                196,
                197,
                198,
                199,
                200,
                201,
                202,
                203,
                204,
                205,
                206,
                207,
                208,
                209,
                210,
                211,
                212,
                213,
                214,
                215,
                216,
                217,
                218,
                219,
                220,
                221,
                222,
                223,
                224,
                225,
                226,
                227,
                228,
                229,
                230,
                231,
                232,
                233,
                234,
                235,
                236,
                237,
                238,
                239,
                240,
                241,
                242,
                243,
                244,
                245,
                246,
                247,
                248,
                249,
                250,
                251,
                252,
                253,
                254,
                255,
                256,
                257,
                258,
                259,
                260,
                261,
                262,
                263,
                264,
                265,
                266,
                267,
                268,
                269,
                270,
                271,
                272,
                273,
                274,
                275,
                276,
                277,
                278,
                279,
                280,
                281,
                282,
                283,
                284,
                285,
                286,
                287,
                288,
                289,
                290,
                291,
                292,
                293,
                294,
                295,
                296,
                297,
                298,
                299,
                300,
                301,
                302,
                303,
                304,
                305,
                306,
                307,
                308,
                309,
                310,
                311,
                312,
                313,
                314,
                315,
                316,
                317,
                318,
                319,
                320,
                321,
                322,
                323,
                324,
                325,
                326,
                327,
                328,
                329,
                330,
                331,
                332,
                333,
                334,
                335,
                336,
                337,
                338,
                339,
                340,
                341,
                342,
                343,
                344,
                345,
                346,
                347,
                348,
                349,
                350,
                351,
                352,
                353,
                354,
                355,
                356,
                357,
                358,
                359,
                360,
                361,
                362,
                363,
                364,
                365,
                366,
                367,
                368,
                369,
                370,
                371,
                372,
                373,
                374,
                375,
                376,
                377,
                378,
                379,
                380,
                381,
                382,
                383,
                384,
                385,
                386,
                387,
                388,
                389,
                390,
                391,
                392,
                393,
                394,
                395,
                396,
                397,
                398,
                399,
                400,
                401,
                402,
                403,
                404,
                405,
                406,
                407,
                408,
                409,
                410,
                411,
                412,
                413,
                414,
                415,
                416,
                417,
                418,
                419,
                420,
                421,
                422,
                423,
                424,
                425,
                426,
                427,
                428,
                429,
                430,
                431,
                432,
                433,
                434,
                435,
                436,
                437,
                438,
                439,
                440,
                441,
                442,
                443,
                444,
                445,
                446,
                447,
                448,
                449,
                450,
                451,
                452,
                453,
                454,
                455,
                456,
                457,
                458,
                459,
                460,
                461,
                462,
                463,
                464,
                465,
                466,
                467,
                468,
                469,
                470,
                471,
                472,
                473,
                474,
                475,
                476,
                477,
                478,
                479,
                480,
                481,
                482,
                483,
                484,
                485,
                486,
                487,
                488,
                489,
                490,
                491,
                492,
                493,
                494,
                495,
                496,
                497,
                498,
                499,
                500,
                501,
                502,
                503,
                504,
                505,
                506,
                507,
                508,
                509,
                510,
                511,
                512,
                513,
                514,
                515,
                516,
                517,
                518
            ],
            "AcquisitionTime": [
                "074245.105000",
                "074314.105000",
                "074315.265000",
                "074316.425000",
                "074317.585000",
                "074318.745000",
                "074319.905000",
                "074321.065000",
                "074322.225000",
                "074323.385000",
                "074324.545000",
                "074325.705000",
                "074326.865000",
                "074328.025000",
                "074329.185000",
                "074330.345000",
                "074331.505000",
                "074332.665000",
                "074333.825000",
                "074334.985000",
                "074336.145000",
                "074337.305000",
                "074338.465000",
                "074339.625000",
                "074340.785000",
                "074341.945000",
                "074343.105000",
                "074344.265000",
                "074345.425000",
                "074346.585000",
                "074347.745000",
                "074348.905000",
                "074350.065000",
                "074351.225000",
                "074352.385000",
                "074353.545000",
                "074354.705000",
                "074355.865000",
                "074357.025000",
                "074358.185000",
                "074359.345000",
                "074400.505000",
                "074401.665000",
                "074402.825000",
                "074403.985000",
                "074405.145000",
                "074406.305000",
                "074407.465000",
                "074408.625000",
                "074409.785000",
                "074410.945000",
                "074412.105000",
                "074413.265000",
                "074414.425000",
                "074415.585000",
                "074416.745000",
                "074417.905000",
                "074419.065000",
                "074420.225000",
                "074421.385000",
                "074422.545000",
                "074423.705000",
                "074424.865000",
                "074426.025000",
                "074427.185000",
                "074428.345000",
                "074429.505000",
                "074430.665000",
                "074431.825000",
                "074432.985000",
                "074434.145000",
                "074435.305000",
                "074436.465000",
                "074437.625000",
                "074438.785000",
                "074439.945000",
                "074441.105000",
                "074442.265000",
                "074443.425000",
                "074444.587500",
                "074445.747500",
                "074446.907500",
                "074448.067500",
                "074449.227500",
                "074450.387500",
                "074451.547500",
                "074452.707500",
                "074453.867500",
                "074455.027500",
                "074456.187500",
                "074457.347500",
                "074458.507500",
                "074459.667500",
                "074500.827500",
                "074501.987500",
                "074503.147500",
                "074504.307500",
                "074505.467500",
                "074506.627500",
                "074507.787500",
                "074508.947500",
                "074510.107500",
                "074511.267500",
                "074512.427500",
                "074513.587500",
                "074514.747500",
                "074515.907500",
                "074517.067500",
                "074518.227500",
                "074519.387500",
                "074520.547500",
                "074521.707500",
                "074522.867500",
                "074524.027500",
                "074525.187500",
                "074526.347500",
                "074527.507500",
                "074528.667500",
                "074529.827500",
                "074530.987500",
                "074532.147500",
                "074533.307500",
                "074534.467500",
                "074535.627500",
                "074536.787500",
                "074537.947500",
                "074539.107500",
                "074540.267500",
                "074541.427500",
                "074542.587500",
                "074543.747500",
                "074544.907500",
                "074546.067500",
                "074547.227500",
                "074548.387500",
                "074549.547500",
                "074550.707500",
                "074551.867500",
                "074553.027500",
                "074554.187500",
                "074555.347500",
                "074556.507500",
                "074557.667500",
                "074558.827500",
                "074559.987500",
                "074601.147500",
                "074602.307500",
                "074603.467500",
                "074604.627500",
                "074605.787500",
                "074606.947500",
                "074608.107500",
                "074609.267500",
                "074610.427500",
                "074611.587500",
                "074612.747500",
                "074613.907500",
                "074615.067500",
                "074616.227500",
                "074617.387500",
                "074618.547500",
                "074619.707500",
                "074620.867500",
                "074622.027500",
                "074623.187500",
                "074624.347500",
                "074625.507500",
                "074626.667500",
                "074627.827500",
                "074628.987500",
                "074630.147500",
                "074631.307500",
                "074632.467500",
                "074633.627500",
                "074634.787500",
                "074635.947500",
                "074637.107500",
                "074638.267500",
                "074639.427500",
                "074640.587500",
                "074641.747500",
                "074642.907500",
                "074644.067500",
                "074645.227500",
                "074646.387500",
                "074647.547500",
                "074648.707500",
                "074649.867500",
                "074651.027500",
                "074652.187500",
                "074653.347500",
                "074654.507500",
                "074655.667500",
                "074656.827500",
                "074657.987500",
                "074659.147500",
                "074700.307500",
                "074701.467500",
                "074702.627500",
                "074703.787500",
                "074704.947500",
                "074706.107500",
                "074707.267500",
                "074708.427500",
                "074709.587500",
                "074710.747500",
                "074711.907500",
                "074713.067500",
                "074714.227500",
                "074715.387500",
                "074716.547500",
                "074717.707500",
                "074718.867500",
                "074720.027500",
                "074721.187500",
                "074722.347500",
                "074723.507500",
                "074724.667500",
                "074725.827500",
                "074726.987500",
                "074728.147500",
                "074729.307500",
                "074730.467500",
                "074731.627500",
                "074732.787500",
                "074733.947500",
                "074735.107500",
                "074736.267500",
                "074737.427500",
                "074738.587500",
                "074739.747500",
                "074740.907500",
                "074742.067500",
                "074743.227500",
                "074744.387500",
                "074745.547500",
                "074746.707500",
                "074747.867500",
                "074749.027500",
                "074750.187500",
                "074751.347500",
                "074752.507500",
                "074753.667500",
                "074754.827500",
                "074755.987500",
                "074757.147500",
                "074758.307500",
                "074759.467500",
                "074800.627500",
                "074801.787500",
                "074802.947500",
                "074804.107500",
                "074805.267500",
                "074806.427500",
                "074807.587500",
                "074808.747500",
                "074809.907500",
                "074811.067500",
                "074812.227500",
                "074813.387500",
                "074814.547500",
                "074815.707500",
                "074816.867500",
                "074818.027500",
                "074819.187500",
                "074820.347500",
                "074821.507500",
                "074822.667500",
                "074823.827500",
                "074824.987500",
                "074826.147500",
                "074827.307500",
                "074828.467500",
                "074829.627500",
                "074830.787500",
                "074831.947500",
                "074833.107500",
                "074834.267500",
                "074835.427500",
                "074836.587500",
                "074837.747500",
                "074838.907500",
                "074840.067500",
                "074841.227500",
                "074842.387500",
                "074843.547500",
                "074844.707500",
                "074845.867500",
                "074847.027500",
                "074848.187500",
                "074849.347500",
                "074850.507500",
                "074851.667500",
                "074852.827500",
                "074853.987500",
                "074855.147500",
                "074856.307500",
                "074857.467500",
                "074858.627500",
                "074859.787500",
                "074900.947500",
                "074902.107500",
                "074903.267500",
                "074904.427500",
                "074905.587500",
                "074906.747500",
                "074907.907500",
                "074909.067500",
                "074910.227500",
                "074911.387500",
                "074912.547500",
                "074913.707500",
                "074914.867500",
                "074916.027500",
                "074917.187500",
                "074918.347500",
                "074919.507500",
                "074920.667500",
                "074921.827500",
                "074922.987500",
                "074924.147500",
                "074925.307500",
                "074926.467500",
                "074927.627500",
                "074928.787500",
                "074929.947500",
                "074931.107500",
                "074932.267500",
                "074933.427500",
                "074934.587500",
                "074935.750000",
                "074936.910000",
                "074938.070000",
                "074939.230000",
                "074940.390000",
                "074941.550000",
                "074942.710000",
                "074943.870000",
                "074945.030000",
                "074946.190000",
                "074947.350000",
                "074948.510000",
                "074949.670000",
                "074950.830000",
                "074951.990000",
                "074953.150000",
