{"AcquisitionMatrixPE": 96, "AcquisitionNumber": 1, "AcquisitionTime": "07:56:48.632500", "BandwidthPerPixelPhaseEncode": 33.602, "BaseResolution": 96, "BodyPartExamined": "BRAIN", "ConsistencyInfo": "N4_VD11D_LATEST_20110129", "ConversionSoftware": "dcm2niix", "ConversionSoftwareVersion": "v1.0.20210317", "DerivedVendorReportedEchoSpacing": 0.000620003, "DeviceSerialNumber": "45239", "DwellTime": 2.6e-06, "EchoTime": 0.03, "EchoTrainLength": 48, "EffectiveEchoSpacing": 0.000310001, "FlipAngle": 63, "ImageComments": "Unaliased MB4/PE3", "ImageOrientationPatientDICOM": [0.999363, -0.0315935, 0.0165869, 0.035683, 0.88483, -0.464546], "ImageType": ["ORIGINAL", "PRIMARY", "M", "ND", "NORM", "MOSAIC"], "ImagingFrequency": 123.193, "InPlanePhaseEncodingDirectionDICOM": "COL", "InstitutionAddress": "E 24th St. 100,Austin,Southmiddle,US,78712", "InstitutionName": "Univ of Texas at Austin", "InstitutionalDepartmentName": "IRC", "MRAcquisitionType": "2D", "MagneticFieldStrength": 3, "Manufacturer": "Siemens", "ManufacturersModelName": "Skyra", "Modality": "MR", "MultibandAccelerationFactor": 4, "ParallelReductionFactorInPlane": 2, "PartialFourier": 1, "PatientPosition": "HFS", "PercentPhaseFOV": 100, "PercentSampling": 100, "PhaseEncodingDirection": "j-", "PhaseEncodingSteps": 96, "PhaseResolution": 1, "PixelBandwidth": 2005, "ProcedureStepDescription": "Poldrack2^self-scanning", "ProtocolName": "Breath Hold", "PulseSequenceDetails": "%CustomerSeq%\\cmrr_mbep2d_bold", "ReceiveCoilActiveElements": "HEA;HEP", "ReceiveCoilName": "Head_32", "ReconMatrixPE": 96, "RefLinesPE": 94, "RepetitionTime": 1.16, "SAR": 0.100409, "ScanOptions": "FS", "ScanningSequence": "EP", "SequenceName": "epfid2d1_96", "SequenceVariant": "SK", "SeriesDescription": "Breath Hold", "SeriesNumber": 8, "ShimSetting": [-2757, 8053, -15442, 184, -171, 160, 246, -57], "SliceThickness": 2, "SliceTiming": [0, 0.4975, 0.995, 0.355, 0.8525, 0.2125, 0.71, 0.07, 0.5675, 1.0675, 0.4275, 0.925, 0.285, 0.7825, 0.1425, 0.64, 0, 0.4975, 0.995, 0.355, 0.8525, 0.2125, 0.71, 0.07, 0.5675, 1.0675, 0.4275, 0.925, 0.285, 0.7825, 0.1425, 0.64, 0, 0.4975, 0.995, 0.355, 0.8525, 0.2125, 0.71, 0.07, 0.5675, 1.0675, 0.4275, 0.925, 0.285, 0.7825, 0.1425, 0.64, 0, 0.4975, 0.995, 0.355, 0.8525, 0.2125, 0.71, 0.07, 0.5675, 1.0675, 0.4275, 0.925, 0.285, 0.7825, 0.1425, 0.64], "SoftwareVersions": "syngo MR D11", "SpacingBetweenSlices": 2.4, "StationName": "AWP45239", "TaskName": "Breath holding task", "TotalReadoutTime": 0.0294501, "TxRefAmp": 343.118, "WipMemBlock": "5639c7a1-40c6-4e28-8d14-38dd41c06458||Sequence: VD11D r206; Feb 13 2013 18:52:04 by eja", "dcmmeta_affine": [[-2.3943073749542236, 0.08549043536186218, -3.034692142023232e-08, 111.5404281616211], [0.07569269835948944, 2.1199045181274414, -1.1156208515167236, -89.96097564697266], [0.039739519357681274, 1.112974762916565, 2.1249446868896484, -84.56620025634766], [0.0, 0.0, 0.0, 1.0]], "dcmmeta_reorient_transform": [[0.0, -1.0, 0.0, 95.0], [1.0, 0.0, 0.0, 0.0], [0.0, 0.0, 1.0, 0.0], [0.0, 0.0, 0.0, 1.0]], "dcmmeta_shape": [96, 96, 64, 318], "dcmmeta_slice_dim": 2, "dcmmeta_version": 0.6, "global": {"const": {"AcquisitionMatrix": [96, 0, 0, 96], "AngioFlag": "N", "BitsAllocated": 16, "BitsStored": 16, "BodyPartExamined": "BRAIN", "Columns": 768, "EchoNumbers": 1, "EchoTime": 30.0, "EchoTrainLength": 48, "FlipAngle": 63.0, "HighBit": 15, "ImageOrientationPatient": [0.99936316019766, -0.0315934765877, 0.01658693090487, 0.03568296568028, 0.88482978151229, -0.4645459974095], "ImagePositionPatient": [-952.8741207104, -798.28516906284, 381.7734391164], "ImageType": ["ORIGINAL", "PRIMARY", "M", "ND", "NORM", "MOSAIC"], "ImagedNucleus": "1H", "ImagingFrequency": 123.193316, "InPlanePhaseEncodingDirection": "COL", "MRAcquisitionType": "2D", "MagneticFieldStrength": 3.0, "Manufacturer": "SIEMENS", "ManufacturerModelName": "Skyra", "Modality": "MR", "NumberOfAverages": 1.0, "NumberOfPhaseEncodingSteps": 96, "PercentPhaseFieldOfView": 100.0, "PercentSampling": 100.0, "PerformedProcedureStepStartTime": "072120.546000", "PhotometricInterpretation": "MONOCHROME2", "PixelBandwidth": 2005.0, "PixelRepresentation": 0, "PixelSpacing": [2.3958332538605, 2.3958332538605], "ProtocolName": "Breath Hold", "RepetitionTime": 1160.0, "Rows": 768, "SAR": 0.10040912071909, "SamplesPerPixel": 1, "ScanOptions": "FS", "ScanningSequence": "EP", "SequenceName": "epfid2d1_96", "SequenceVariant": "SK", "SeriesDescription": "Breath Hold", "SeriesNumber": 8, "SeriesTime": "075819.765000", "SliceLocation": -33.056734845437, "SliceThickness": 2.0, "SmallestImagePixelValue": 0, "SoftwareVersions": "syngo MR D11", "SpacingBetweenSlices": 2.4000000093996, "SpecificCharacterSet": "ISO_IR 100", "StudyID": "1", "StudyTime": "072120.500000", "TransmitCoilName": "Body", "VariableFlipAngleFlag": "N", "WindowCenterWidthExplanation": "Algo1", "dBdt": 0.0}, "slices": {}}, "time": {"samples": {"AcquisitionNumber": [1, 2, 3, 4, 5, 6, 7, 8, 9, 10, 11, 12, 13, 14, 15, 16, 17, 18, 19, 20, 21, 22, 23, 24, 25, 26, 27, 28, 29, 30, 31, 32, 33, 34, 35, 36, 37, 38, 39, 40, 41, 42, 43, 44, 45, 46, 47, 48, 49, 50, 51, 52, 53, 54, 55, 56, 57, 58, 59, 60, 61, 62, 63, 64, 65, 66, 67, 68, 69, 70, 71, 72, 73, 74, 75, 76, 77, 78, 79, 80, 81, 82, 83, 84, 85, 86, 87, 88, 89, 90, 91, 92, 93, 94, 95, 96, 97, 98, 99, 100, 101, 102, 103, 104, 105, 106, 107, 108, 109, 110, 111, 112, 113, 114, 115, 116, 117, 118, 119, 120, 121, 122, 123, 124, 125, 126, 127, 128, 129, 130, 131, 132, 133, 134, 135, 136, 137, 138, 139, 140, 141, 142, 143, 144, 145, 146, 147, 148, 149, 150, 151, 152, 153, 154, 155, 156, 157, 158, 159, 160, 161, 162, 163, 164, 165, 166, 167, 168, 169, 170, 171, 172, 173, 174, 175, 176, 177, 178, 179, 180, 181, 182, 183, 184, 185, 186, 187, 188, 189, 190, 191, 192, 193, 194, 195, 196, 197, 198, 199, 200, 201, 202, 203, 204, 205, 206, 207, 208, 209, 210, 211, 212, 213, 214, 215, 216, 217, 218, 219, 220, 221, 222, 223, 224, 225, 226, 227, 228, 229, 230, 231, 232, 233, 234, 235, 236, 237, 238, 239, 240, 241, 242, 243, 244, 245, 246, 247, 248, 249, 250, 251, 252, 253, 254, 255, 256, 257, 258, 259, 260, 261, 262, 263, 264, 265, 266, 267, 268, 269, 270, 271, 272, 273, 274, 275, 276, 277, 278, 279, 280, 281, 282, 283, 284, 285, 286, 287, 288, 289, 290, 291, 292, 293, 294, 295, 296, 297, 298, 299, 300, 301, 302, 303, 304, 305, 306, 307, 308, 309, 310, 311, 312, 313, 314, 315, 316, 317, 318], "AcquisitionTime": ["075648.632500", "075717.632500", "075718.792500", "075719.952500", "075721.112500", "075722.272500", "075723.432500", "075724.592500", "075725.752500", "075726.912500", "075728.072500", "075729.232500", "075730.392500", "075731.552500", "075732.712500", "075733.872500", "075735.032500", "075736.192500", "075737.352500", "075738.512500", "075739.672500", "075740.832500", "075741.992500", "075743.152500", "075744.312500", "075745.472500", "075746.632500", "075747.792500", "075748.952500", "075750.112500", "075751.272500", "075752.432500", "075753.592500", "075754.752500", "075755.912500", "075757.072500", "075758.232500", "075759.392500", "075800.552500", "075801.712500", "075802.872500", "075804.032500", "075805.192500", "075806.352500", "075807.512500", "075808.672500", "075809.832500", "075810.992500", "075812.152500", "075813.312500", "075814.472500", "075815.632500", "075816.792500", "075817.952500", "075819.112500", "075820.272500", "075821.432500", "075822.592500", "075823.752500", "075824.912500", "075826.072500", "075827.232500", "075828.392500", "075829.552500", "075830.712500", "075831.872500", "075833.032500", "075834.192500", "075835.352500", "075836.512500", "075837.672500", "075838.832500", "075839.992500", "075841.152500", "075842.312500", "075843.472500", "075844.632500", "075845.792500", "075846.952500", "075848.112500", "075849.272500", "075850.432500", "075851.592500", "075852.752500", "075853.912500", "075855.072500", "075856.232500", "075857.392500", "075858.552500", "075859.712500", "075900.872500", "075902.032500", "075903.192500", "075904.352500", "075905.512500", "075906.672500", "075907.832500", "075908.992500", "075910.152500", "075911.312500", "075912.472500", "075913.632500", "075914.792500", "075915.952500", "075917.112500", "075918.272500", "075919.432500", "075920.592500", "075921.752500", "075922.912500", "075924.072500", "075925.232500", "075926.392500", "075927.552500", "075928.712500", "075929.872500", "075931.032500", "075932.192500", "075933.352500", "075934.512500", "075935.672500", "075936.832500", "075937.992500", "075939.152500", "075940.312500", "075941.472500", "075942.632500", "075943.792500", "075944.952500", "075946.112500", "075947.272500", "075948.432500", "075949.592500", "075950.752500", "075951.912500", "075953.072500", "075954.232500", "075955.392500", "075956.552500", "075957.712500", "075958.872500", "080000.032500", "080001.192500", "080002.352500", "080003.512500", "080004.672500", "080005.832500", "080006.992500", "080008.152500", "080009.312500", "080010.472500", "080011.632500", "080012.792500", "080013.952500", "080015.112500", "080016.272500", "080017.432500", "080018.592500", "080019.752500", "080020.912500", "080022.072500", "080023.232500", "080024.392500", "080025.552500", "080026.712500", "080027.872500", "080029.032500", "080030.192500", "080031.352500", "080032.512500", "080033.672500", "080034.832500", "080035.992500", "080037.152500", "080038.312500", "080039.472500", "080040.632500", "080041.792500", "080042.952500", "080044.112500", "080045.272500", "080046.432500", "080047.592500", "080048.752500", "080049.912500", "080051.072500", "080052.232500", "080053.392500", "080054.552500", "080055.712500", "080056.872500", "080058.032500", "080059.192500", "080100.352500", "080101.512500", "080102.672500", "080103.832500", "080104.992500", "080106.152500", "080107.312500", "080108.472500", "080109.632500", "080110.792500", "080111.952500", "080113.112500", "080114.272500", "080115.432500", "080116.592500", "080117.752500", "080118.912500", "080120.072500", "080121.232500", "080122.392500", "080123.552500", "080124.712500", "080125.872500", "080127.032500", "080128.192500", "080129.352500", "080130.512500", "080131.672500", "080132.832500", "080133.992500", "080135.152500", "080136.312500", "080137.472500", "080138.632500", "080139.792500", "080140.952500", "080142.112500", "080143.272500", "080144.432500", "080145.595000", "080146.755000", "080147.915000", "080149.075000", "080150.235000", "080151.395000", "080152.555000", "080153.715000", "080154.875000", "080156.035000", "080157.195000", "080158.355000", "080159.515000", "080200.675000", "080201.835000", "080202.995000", "080204.155000", "080205.315000", "080206.475000", "080207.635000", "080208.795000", "080209.955000", "080211.115000", "080212.275000", "080213.435000", "080214.595000", "080215.755000", "080216.915000", "080218.075000", "080219.235000", "080220.395000", "080221.555000", "080222.715000", "080223.875000", "080225.035000", "080226.195000", "080227.355000", "080228.515000", "080229.675000", "080230.835000", "080231.995000", "080233.155000", "080234.315000", "080235.475000", "080236.635000", "080237.795000", "080238.955000", "080240.115000", "080241.275000", "080242.435000", "080243.595000", "080244.755000", "080245.915000", "080247.075000", "080248.235000", "080249.395000", "080250.555000", "080251.715000", "080252.875000", "080254.035000", "080255.195000", "080256.355000", "080257.515000", "080258.675000", "080259.835000", "080300.995000", "080302.155000", "080303.315000", "080304.475000", "080305.635000", "080306.795000", "080307.955000", "080309.115000", "080310.275000", "080311.435000", "080312.595000", "080313.755000", "080314.915000", "080316.075000", "080317.235000", "080318.395000", "080319.555000", "080320.715000", "080321.875000", "080323.035000", "080324.195000"], "ContentTime": ["075819.765000", "075824.734000", "075824.734000", "075824.750000", "075824.750000", "075829.734000", "075829.734000", "075829.750000", "075829.765000", "075834.734000", "075834.734000", "075834.750000", "075834.765000", "075839.734000", "075839.734000", "075839.750000", "075844.734000", "075844.750000", "075844.750000", "075844.750000", "075849.734000", "075849.734000", "075849.750000", "075849.750000", "075854.734000", "075854.734000", "075854.750000", "075859.734000", "075859.734000", "075859.750000", "075859.750000", "075904.734000", "075904.734000", "075904.750000", "075904.750000", "075909.734000", "075909.734000", "075909.750000", "075909.750000", "075914.734000", "075914.750000", "075914.750000", "075919.734000", "075919.734000", "075919.750000", "075919.750000", "075924.734000", "075924.734000", "075924.750000", "075924.750000", "075929.734000", "075929.750000", "075929.750000", "075929.750000", "075934.734000", "075934.734000", "075934.750000", "075934.750000", "075939.734000", "075939.734000", "075939.750000", "075944.734000", "075944.734000", "075944.750000", "075944.750000", "075949.734000", "075949.734000", "075949.750000", "075949.750000", "075954.734000", "075954.734000", "075954.750000", "075959.734000", "075959.750000", "075959.750000", "075959.750000", "080004.734000", "080004.750000", "080004.750000", "080004.750000", "080009.734000", "080009.750000", "080009.750000", "080009.765000", "080014.734000", "080014.734000", "080014.750000", "080019.734000", "080019.734000", "080019.750000", "080019.750000", "080024.734000", "080024.734000", "080024.750000", "080024.750000", "080029.734000", "080029.734000", "080029.750000", "080029.750000", "080034.734000", "080034.734000", "080034.750000", "080034.750000", "080039.734000", "080039.734000", "080039.750000", "080044.734000", "080044.734000", "080044.750000", "080044.750000", "080049.734000", "080049.734000", "080049.750000", "080049.750000", "080054.734000", "080054.734000", "080054.750000", "080059.734000", "080059.734000", "080059.750000", "080059.750000", "080104.734000", "080104.734000", "080104.750000", "080104.750000", "080109.734000", "080109.734000", "080109.750000", "080114.734000", "080114.734000", "080114.750000", "080114.750000", "080119.734000", "080119.750000", "080119.750000", "080119.750000", "080124.734000", "080124.734000", "080124.750000", "080129.734000", "080129.734000", "080129.750000", "080129.750000", "080134.734000", "080134.734000", "080134.750000", "080134.750000", "080139.734000", "080139.734000", "080139.750000", "080139.750000", "080144.734000", "080144.734000", "080144.750000", "080149.734000", "080149.734000", "080149.750000", "080149.750000", "080154.734000", "080154.750000", "080154.750000", "080154.750000", "080159.734000", "080159.734000", "080159.750000", "080204.734000", "080204.734000", "080204.750000", "080204.750000", "080209.734000", "080209.734000", "080209.750000", "080214.734000", "080214.734000", "080214.750000", "080214.750000", "080219.734000", "080219.734000", "080219.750000", "080219.750000", "080224.734000", "080224.734000", "080224.750000", "080229.734000", "080229.734000", "080229.750000", "080229.750000", "080234.734000", "080234.734000", "080234.750000", "080234.750000", "080239.734000", "080239.734000", "080239.750000", "080239.750000", "080244.734000", "080244.750000", "080244.750000", "080249.734000", "080249.734000", "080249.750000", "080249.765000", "080254.734000", "080254.734000", "080254.750000", "080254.750000", "080259.734000", "080259.734000", "080259.750000", "080259.750000", "080304.734000", "080304.734000", "080304.750000", "080304.750000", "080309.734000", "080309.734000", "080309.750000", "080314.734000", "080314.734000", "080314.750000", "080314.750000", "080319.734000", "080319.734000", "080319.750000", "080319.750000", "080324.734000", "080324.734000", "080324.750000", "080324.750000", "080329.734000", "080329.734000", "080329.750000", "080329.750000", "080334.734000", "080334.734000", "080334.750000", "080334.750000", "080339.734000", "080339.734000", "080339.750000", "080339.750000", "080344.734000", "080344.734000", "080344.750000", "080344.750000", "080349.734000", "080349.734000", "080349.750000", "080349.750000", "080354.734000", "080354.734000", "080354.750000", "080354.750000", "080359.734000", "080359.734000", "080359.750000", "080359.750000", "080404.734000", "080404.734000", "080404.750000", "080404.750000", "080409.734000", "080409.750000", "080409.750000", "080409.750000", "080414.734000", "080414.734000", "080414.750000", "080414.750000", "080419.734000", "080419.734000", "080419.750000", "080419.750000", "080424.734000", "080424.734000", "080424.750000", "080424.750000", "080429.734000", "080429.734000", "080429.750000", "080429.750000", "080434.734000", "080434.734000", "080434.750000", "080434.750000", "080439.734000", "080439.734000", "080439.750000", "080439.750000", "080444.734000", "080444.734000", "080444.750000", "080444.750000", "080449.734000", "080449.750000", "080449.750000", "080449.750000", "080454.734000", "080454.734000", "080454.750000", "080454.750000", "080459.734000", "080459.734000", "080459.750000", "080459.750000", "080504.734000", "080504.734000", "080504.750000", "080504.750000", "080509.734000", "080509.734000", "080509.750000", "080509.750000", "080514.734000", "080514.734000", "080514.750000", "080514.750000", "080514.984000"], "InstanceCreationTime": ["075819.765000", "075824.734000", "075824.734000", "075824.750000", "075824.750000", "075829.734000", "075829.734000", "075829.750000", "075829.765000", "075834.734000", "075834.734000", "075834.750000", "075834.765000", "075839.734000", "075839.734000", "075839.750000", "075844.734000", "075844.750000", "075844.750000", "075844.750000", "075849.734000", "075849.734000", "075849.750000", "075849.750000", "075854.734000", "075854.734000", "075854.750000", "075859.734000", "075859.734000", "075859.750000", "075859.750000", "075904.734000", "075904.734000", "075904.750000", "075904.750000", "075909.734000", "075909.734000", "075909.750000", "075909.750000", "075914.734000", "075914.750000", "075914.750000", "075919.734000", "075919.734000", "075919.750000", "075919.750000", "075924.734000", "075924.734000", "075924.750000", "075924.750000", "075929.734000", "075929.750000", "075929.750000", "075929.750000", "075934.734000", "075934.734000", "075934.750000", "075934.750000", "075939.734000", "075939.734000", "075939.750000", "075944.734000", "075944.734000", "075944.750000", "075944.750000", "075949.734000", "075949.734000", "075949.750000", "075949.750000", "075954.734000", "075954.734000", "075954.750000", "075959.734000", "075959.750000", "075959.750000", "075959.750000", "080004.734000", "080004.750000", "080004.750000", "080004.750000", "080009.734000", "080009.750000", "080009.750000", "080009.765000", "080014.734000", "080014.734000", "080014.750000", "080019.734000", "080019.734000", "080019.750000", "080019.750000", "080024.734000", "080024.734000", "080024.750000", "080024.750000", "080029.734000", "080029.734000", "080029.750000", "080029.750000", "080034.734000", "080034.734000", "080034.750000", "080034.750000", "080039.734000", "080039.734000", "080039.750000", "080044.734000", "080044.734000", "080044.750000", "080044.750000", "080049.734000", "080049.734000", "080049.750000", "080049.750000", "080054.734000", "080054.734000", "080054.750000", "080059.734000", "080059.734000", "080059.750000", "080059.750000", "080104.734000", "080104.734000", "080104.750000", "080104.750000", "080109.734000", "080109.734000", "080109.750000", "080114.734000", "080114.734000", "080114.750000", "080114.750000", "080119.734000", "080119.750000", "080119.750000", "080119.750000", "080124.734000", "080124.734000", "080124.750000", "080129.734000", "080129.734000", "080129.750000", "080129.750000", "080134.734000", "080134.734000", "080134.750000", "080134.750000", "080139.734000", "080139.734000", "080139.750000", "080139.750000", "080144.734000", "080144.734000", "080144.750000", "080149.734000", "080149.734000", "080149.750000", "080149.750000", "080154.734000", "080154.750000", "080154.750000", "080154.750000", "080159.734000", "080159.734000", "080159.750000", "080204.734000", "080204.734000", "080204.750000", "080204.750000", "080209.734000", "080209.734000", "080209.750000", "080214.734000", "080214.734000", "080214.750000", "080214.750000", "080219.734000", "080219.734000", "080219.750000", "080219.750000", "080224.734000", "080224.734000", "080224.750000", "080229.734000", "080229.734000", "080229.750000", "080229.750000", "080234.734000", "080234.734000", "080234.750000", "080234.750000", "080239.734000", "080239.734000", "080239.750000", "080239.750000", "080244.734000", "080244.750000", "080244.750000", "080249.734000", "080249.734000", "080249.750000", "080249.765000", "080254.734000", "080254.734000", "080254.750000", "080254.750000", "080259.734000", "080259.734000", "080259.750000", "080259.750000", "080304.734000", "080304.734000", "080304.750000", "080304.750000", "080309.734000", "080309.734000", "080309.750000", "080314.734000", "080314.734000", "080314.750000", "080314.750000", "080319.734000", "080319.734000", "080319.750000", "080319.750000", "080324.734000", "080324.734000", "080324.750000", "080324.750000", "080329.734000", "080329.734000", "080329.750000", "080329.750000", "080334.734000", "080334.734000", "080334.750000", "080334.750000", "080339.734000", "080339.734000", "080339.750000", "080339.750000", "080344.734000", "080344.734000", "080344.750000", "080344.750000", "080349.734000", "080349.734000", "080349.750000", "080349.750000", "080354.734000", "080354.734000", "080354.750000", "080354.750000", "080359.734000", "080359.734000", "080359.750000", "080359.750000", "080404.734000", "080404.734000", "080404.750000", "080404.750000", "080409.734000", "080409.750000", "080409.750000", "080409.750000", "080414.734000", "080414.734000", "080414.750000", "080414.750000", "080419.734000", "080419.734000", "080419.750000", "080419.750000", "080424.734000", "080424.734000", "080424.750000", "080424.750000", "080429.734000", "080429.734000", "080429.750000", "080429.750000", "080434.734000", "080434.734000", "080434.750000", "080434.750000", "080439.734000", "080439.734000", "080439.750000", "080439.750000", "080444.734000", "080444.734000", "080444.750000", "080444.750000", "080449.734000", "080449.750000", "080449.750000", "080449.750000", "080454.734000", "080454.734000", "080454.750000", "080454.750000", "080459.734000", "080459.734000", "080459.750000", "080459.750000", "080504.734000", "080504.734000", "080504.750000", "080504.750000", "080509.734000", "080509.734000", "080509.750000", "080509.750000", "080514.734000", "080514.734000", "080514.750000", "080514.750000", "080514.984000"], "InstanceNumber": [1, 2, 3, 4, 5, 6, 7, 8, 9, 10, 11, 12, 13, 14, 15, 16, 17, 18, 19, 20, 21, 22, 23, 24, 25, 26, 27, 28, 29, 30, 31, 32, 33, 34, 35, 36, 37, 38, 39, 40, 41, 42, 43, 44, 45, 46, 47, 48, 49, 50, 51, 52, 53, 54, 55, 56, 57, 58, 59, 60, 61, 62, 63, 64, 65, 66, 67, 68, 69, 70, 71, 72, 73, 74, 75, 76, 77, 78, 79, 80, 81, 82, 83, 84, 85, 86, 87, 88, 89, 90, 91, 92, 93, 94, 95, 96, 97, 98, 99, 100, 101, 102, 103, 104, 105, 106, 107, 108, 109, 110, 111, 112, 113, 114, 115, 116, 117, 118, 119, 120, 121, 122, 123, 124, 125, 126, 127, 128, 129, 130, 131, 132, 133, 134, 135, 136, 137, 138, 139, 140, 141, 142, 143, 144, 145, 146, 147, 148, 149, 150, 151, 152, 153, 154, 155, 156, 157, 158, 159, 160, 161, 162, 163, 164, 165, 166, 167, 168, 169, 170, 171, 172, 173, 174, 175, 176, 177, 178, 179, 180, 181, 182, 183, 184, 185, 186, 187, 188, 189, 190, 191, 192, 193, 194, 195, 196, 197, 198, 199, 200, 201, 202, 203, 204, 205, 206, 207, 208, 209, 210, 211, 212, 213, 214, 215, 216, 217, 218, 219, 220, 221, 222, 223, 224, 225, 226, 227, 228, 229, 230, 231, 232, 233, 234, 235, 236, 237, 238, 239, 240, 241, 242, 243, 244, 245, 246, 247, 248, 249, 250, 251, 252, 253, 254, 255, 256, 257, 258, 259, 260, 261, 262, 263, 264, 265, 266, 267, 268, 269, 270, 271, 272, 273, 274, 275, 276, 277, 278, 279, 280, 281, 282, 283, 284, 285, 286, 287, 288, 289, 290, 291, 292, 293, 294, 295, 296, 297, 298, 299, 300, 301, 302, 303, 304, 305, 306, 307, 308, 309, 310, 311, 312, 313, 314, 315, 316, 317, 318], "LargestImagePixelValue": [28817, 26240, 25991, 25726, 25963, 25558, 25513, 27777, 25654, 25761, 25591, 25493, 26142, 27312, 25487, 25453, 25344, 25440, 25287, 30292, 27289, 25241, 25361, 26569, 29055, 26726, 25383, 25205, 25282, 25021, 26097, 25372, 29264, 27845, 27182, 33146, 28579, 26185, 24959, 25556, 29759, 26035, 31577, 25545, 24864, 24923, 27245, 24922, 27919, 24856, 26065, 25469, 30192, 27766, 24782, 26234, 31058, 27508, 26823, 25673, 29125, 24663, 28023, 26634, 31603, 30779, 33202, 26423, 30852, 31961, 27515, 33976, 28058, 29878, 34340, 24540, 24684, 25810, 26727, 24845, 25461, 25106, 23953, 26123, 24705, 25167, 32432, 24067, 24241, 24043, 24737, 25504, 30380, 24627, 28527, 24348, 24228, 24163, 26328, 24069, 25296, 32846, 26427, 24771, 24434, 24473, 26857, 27736, 25932, 28000, 29758, 29257, 25389, 24688, 24159, 29095, 33100, 33237, 29172, 35705, 26564, 28588, 34072, 36867, 29618, 26627, 25693, 24908, 24662, 29768, 26207, 35094, 26447, 23780, 26214, 29621, 24735, 24087, 31697, 24677, 25803, 25075, 27828, 23753, 23834, 25790, 29967, 27090, 33337, 28998, 24914, 29733, 23801, 23653, 24049, 25776, 24881, 25493, 26666, 25070, 24843, 28729, 26523, 27727, 24595, 30598, 26466, 25367, 33493, 28773, 29635, 30865, 32821, 26875, 28109, 28691, 36017, 27960, 29928, 26610, 25418, 24925, 24319, 24718, 23973, 24818, 30029, 26301, 24763, 24521, 32695, 24406, 24687, 23549, 28729, 25763, 35133, 25366, 24103, 25695, 25670, 30089, 23900, 24192, 23367, 24863, 23387, 26384, 27918, 24443, 24215, 25080, 24823, 28208, 28525, 26929, 26392, 28404, 27827, 27124, 25109, 23665, 26494, 34967, 34914, 31484, 25623, 30944, 32818, 35549, 26711, 25851, 25033, 26743, 24675, 29815, 30474, 24647, 33930, 27898, 24405, 29100, 27445, 32514, 25624, 25245, 33080, 26766, 25262, 33614, 23406, 23217, 23692, 32042, 24036, 26755, 25603, 24483, 23913, 23357, 24410, 25273, 24317, 24903, 29309, 24724, 32163, 27905, 29943, 27483, 24275, 28179, 25519, 27140, 33526, 27010, 31629, 27477, 33704, 27931, 25448, 35843, 32469, 26402, 24822, 28107, 24173, 24141, 31296, 26457, 24721, 24003, 25188, 23190, 26830, 26270, 23983, 24370, 25485, 32987, 27247, 29549, 24447, 31031, 24718, 25248, 29050, 23558, 24683, 31556, 24764, 25057, 25496, 24120, 25280, 24934, 26545, 25391], "WindowCenter": [10125.0, 10112.0, 10091.0, 10100.0, 10087.0, 10096.0, 10104.0, 10109.0, 10093.0, 10101.0, 10096.0, 10098.0, 10098.0, 10094.0, 10077.0, 10074.0, 10088.0, 10084.0, 10093.0, 10103.0, 10083.0, 10075.0, 10071.0, 10076.0, 10090.0, 10073.0, 10058.0, 10071.0, 10063.0, 10080.0, 10127.0, 10130.0, 10152.0, 10135.0, 10113.0, 10121.0, 10085.0, 10078.0, 10086.0, 10086.0, 10119.0, 10078.0, 10106.0, 10078.0, 10080.0, 10093.0, 10105.0, 10107.0, 10113.0, 10114.0, 10133.0, 10133.0, 10158.0, 10149.0, 10141.0, 10136.0, 10154.0, 10132.0, 10133.0, 10130.0, 10150.0, 10142.0, 10160.0, 10153.0, 10164.0, 10133.0, 10148.0, 10117.0, 10129.0, 10140.0, 10108.0, 10132.0, 10091.0, 10079.0, 10089.0, 10060.0, 10055.0, 10047.0, 10063.0, 10058.0, 10067.0, 10059.0, 10049.0, 10044.0, 10056.0, 10064.0, 10094.0, 10069.0, 10043.0, 10055.0, 10071.0, 10083.0, 10094.0, 10069.0, 10075.0, 10049.0, 10044.0, 10049.0, 10071.0, 10057.0, 10067.0, 10100.0, 10114.0, 10119.0, 10116.0, 10132.0, 10134.0, 10132.0, 10106.0, 10118.0, 10128.0, 10161.0, 10132.0, 10146.0, 10160.0, 10180.0, 10169.0, 10155.0, 10116.0, 10131.0, 10087.0, 10105.0, 10126.0, 10123.0, 10092.0, 10070.0, 10065.0, 10067.0, 10043.0, 10059.0, 10048.0, 10074.0, 10042.0, 10015.0, 10035.0, 10045.0, 10042.0, 10029.0, 10062.0, 10026.0, 10034.0, 10020.0, 10051.0, 10044.0, 10065.0, 10062.0, 10081.0, 10049.0, 10063.0, 10056.0, 10020.0, 10070.0, 10038.0, 10037.0, 10054.0, 10060.0, 10071.0, 10094.0, 10089.0, 10071.0, 10089.0, 10093.0, 10081.0, 10105.0, 10095.0, 10125.0, 10123.0, 10101.0, 10147.0, 10124.0, 10129.0, 10113.0, 10121.0, 10085.0, 10075.0, 10085.0, 10086.0, 10059.0, 10068.0, 10051.0, 10039.0, 10041.0, 10046.0, 10037.0, 10024.0, 10032.0, 10059.0, 10037.0, 10013.0, 10028.0, 10053.0, 10004.0, 10040.0, 10033.0, 10062.0, 10037.0, 10068.0, 10022.0, 10025.0, 10043.0, 10033.0, 10058.0, 10028.0, 10033.0, 10041.0, 10048.0, 10047.0, 10058.0, 10081.0, 10105.0, 10099.0, 10099.0, 10105.0, 10107.0, 10098.0, 10084.0, 10062.0, 10087.0, 10180.0, 10155.0, 10137.0, 10143.0, 10151.0, 10165.0, 10138.0, 10111.0, 10067.0, 10100.0, 10108.0, 10124.0, 10075.0, 10077.0, 10071.0, 10084.0, 10079.0, 10091.0, 10071.0, 10055.0, 10079.0, 10052.0, 10022.0, 10041.0, 10020.0, 10033.0, 10022.0, 10024.0, 10077.0, 10046.0, 10039.0, 10070.0, 10025.0, 10029.0, 10038.0, 10061.0, 10022.0, 10033.0, 10023.0, 10033.0, 10035.0, 10036.0, 10051.0, 10079.0, 10064.0, 10082.0, 10089.0, 10090.0, 10120.0, 10103.0, 10116.0, 10101.0, 10087.0, 10129.0, 10104.0, 10104.0, 10144.0, 10093.0, 10089.0, 10074.0, 10086.0, 10053.0, 10051.0, 10083.0, 10060.0, 10033.0, 10014.0, 10028.0, 10016.0, 10013.0, 10029.0, 10023.0, 10003.0, 10007.0, 10009.0, 10009.0, 10019.0, 10028.0, 10016.0, 10032.0, 10041.0, 10077.0, 10054.0, 10053.0, 10031.0, 10045.0, 10020.0, 10008.0, 10035.0, 10020.0, 10019.0, 10048.0, 10028.0, 10021.0, 10038.0, 10030.0, 10073.0, 10069.0, 10080.0, 10080.0], "WindowWidth": [21484.0, 21455.0, 21409.0, 21421.0, 21396.0, 21413.0, 21428.0, 21444.0, 21407.0, 21420.0, 21412.0, 21415.0, 21417.0, 21407.0, 21371.0, 21367.0, 21393.0, 21389.0, 21403.0, 21422.0, 21379.0, 21363.0, 21353.0, 21362.0, 21391.0, 21359.0, 21328.0, 21350.0, 21339.0, 21374.0, 21486.0, 21492.0, 21536.0, 21503.0, 21451.0, 21459.0, 21386.0, 21371.0, 21394.0, 21398.0, 21456.0, 21377.0, 21426.0, 21372.0, 21379.0, 21406.0, 21435.0, 21437.0, 21458.0, 21459.0, 21497.0, 21500.0, 21551.0, 21533.0, 21519.0, 21507.0, 21536.0, 21492.0, 21496.0, 21497.0, 21536.0, 21522.0, 21561.0, 21547.0, 21562.0, 21502.0, 21528.0, 21460.0, 21485.0, 21505.0, 21437.0, 21