{"AcquisitionMatrixPE": 96, "AcquisitionNumber": 1, "AcquisitionTime": "07:32:54.805000", "BaseResolution": 96, "BodyPartExamined": "BRAIN", "ConsistencyInfo": "N4_VD11D_LATEST_20110129", "ConversionSoftware": "dcm2niix", "ConversionSoftwareVersion": "v1.0.20210317", "DeviceSerialNumber": "45239", "DwellTime": 9.2e-06, "EchoNumber": 2, "EchoTime": 0.00738, "EchoTime1": 0.00492, "EchoTime2": 0.00738, "FlipAngle": 50, "ImageOrientationPatientDICOM": [0.997573, 0.0226615, 0.0658413, 0.0213633, 0.800353, -0.599148], "ImageType": ["ORIGINAL", "PRIMARY", "P", "ND", "PHASE"], "ImagingFrequency": 123.193, "InPlanePhaseEncodingDirectionDICOM": "COL", "InstitutionAddress": "E 24th St. 100,Austin,Southmiddle,US,78712", "InstitutionName": "Univ of Texas at Austin", "InstitutionalDepartmentName": "IRC", "MRAcquisitionType": "2D", "MagneticFieldStrength": 3, "Manufacturer": "Siemens", "ManufacturersModelName": "Skyra", "Modality": "MR", "PartialFourier": 1, "PatientPosition": "HFS", "PercentPhaseFOV": 100, "PercentSampling": 100, "PhaseEncodingDirection": "j-", "PhaseEncodingSteps": 96, "PhaseResolution": 1, "PixelBandwidth": 565, "ProcedureStepDescription": "Poldrack2^self-scanning", "ProtocolName": "gre_field_mapping", "PulseSequenceDetails": "%SiemensSeq%\\gre_field_mapping", "ReceiveCoilActiveElements": "HEA;HEP", "ReceiveCoilName": "Head_32", "ReconMatrixPE": 96, "RepetitionTime": 0.731, "SAR": 0.111381, "ScanningSequence": "GR", "SequenceName": "*fm2d2r", "SequenceVariant": "SP", "SeriesDescription": "gre_field_mapping", "SeriesNumber": 11, "ShimSetting": [-2766, 8119, -15504, 133, -223, 225, 48, -92], "SliceThickness": 2, "SliceTiming": [0.36719, 0, 0.375, 0.01562, 0.39062, 0.02344, 0.39844, 0.03125, 0.40625, 0.04688, 0.42188, 0.05469, 0.42969, 0.0625, 0.44531, 0.07812, 0.45312, 0.08594, 0.46875, 0.09375, 0.47656, 0.10938, 0.48438, 0.11719, 0.49219, 0.13281, 0.50781, 0.14062, 0.51562, 0.15625, 0.53125, 0.16406, 0.53906, 0.17188, 0.54688, 0.1875, 0.5625, 0.19531, 0.57031, 0.20312, 0.58594, 0.21875, 0.59375, 0.22656, 0.60156, 0.23438, 0.61719, 0.25, 0.625, 0.25781, 0.63281, 0.27344, 0.64844, 0.28125, 0.65625, 0.28906, 0.66406, 0.30469, 0.67969, 0.3125, 0.6875, 0.32812, 0.70312, 0.33594, 0.71094, 0.34375, 0.71875, 0.35938], "SoftwareVersions": "syngo MR D11", "SpacingBetweenSlices": 2.4, "StationName": "AWP45239", "TxRefAmp": 333.111, "dcmmeta_affine": [[-2.3900179862976074, 0.05118287727236748, 0.1590571403503418, 109.42095184326172], [-0.05429327115416527, 1.917513132095337, -1.437835693359375, -64.20792388916016], [0.15774476528167725, 1.4354584217071533, 1.9150238037109375, -105.81468200683594], [0.0, 0.0, 0.0, 1.0]], "dcmmeta_reorient_transform": [[0.0, -1.0, 0.0, 95.0], [1.0, 0.0, 0.0, 0.0], [0.0, 0.0, -1.0, 67.0], [0.0, 0.0, 0.0, 1.0]], "dcmmeta_shape": [96, 96, 68], "dcmmeta_slice_dim": 2, "dcmmeta_version": 0.6, "global": {"const": {"AcquisitionMatrix": [96, 0, 0, 96], "AcquisitionNumber": 1, "AngioFlag": "N", "BitsAllocated": 16, "BitsStored": 12, "BodyPartExamined": "BRAIN", "Columns": 96, "EchoNumbers": 2, "EchoTime": 7.38, "EchoTrainLength": 0, "FlipAngle": 50.0, "HighBit": 11, "ImageOrientationPatient": [0.9975727433687, 0.02266154013346, 0.06584129621016, 0.02136328807104, 0.80035331796213, -0.5991478751943], "ImageType": ["ORIGINAL", "PRIMARY", "P", "ND"], "ImagedNucleus": "1H", "ImagingFrequency": 123.193329, "InPlanePhaseEncodingDirection": "COL", "MRAcquisitionType": "2D", "MagneticFieldStrength": 3.0, "Manufacturer": "SIEMENS", "ManufacturerModelName": "Skyra", "Modality": "MR", "NumberOfAverages": 1.0, "NumberOfPhaseEncodingSteps": 96, "PercentPhaseFieldOfView": 100.0, "PercentSampling": 100.0, "PerformedProcedureStepStartTime": "071103.734000", "PhotometricInterpretation": "MONOCHROME2", "PixelBandwidth": 565.0, "PixelRepresentation": 0, "PixelSpacing": [2.3958332538605, 2.3958332538605], "ProtocolName": "gre_field_mapping", "RepetitionTime": 731.0, "RescaleIntercept": -4096.0, "RescaleSlope": 2.0, "RescaleType": "US", "Rows": 96, "SAR": 0.11138135780515, "SamplesPerPixel": 1, "ScanningSequence": "GR", "SequenceName": "*fm2d2r", "SequenceVariant": "SP", "SeriesDescription": "gre_field_mapping", "SeriesNumber": 11, "SeriesTime": "073516.343000", "SliceThickness": 2.0, "SoftwareVersions": "syngo MR D11", "SpacingBetweenSlices": 2.4, "SpecificCharacterSet": "ISO_IR 100", "StudyID": "1", "StudyTime": "071103.687000", "TransmitCoilName": "Body", "VariableFlipAngleFlag": "N", "WindowCenterWidthExplanation": "Algo1", "dBdt": 0.0}, "slices": {"AcquisitionTime": ["073254.805000", "073254.440000", "073254.815000", "073254.450000", "073254.825000", "073254.460000", "073254.837500", "073254.472500", "073254.847500", "073254.482500", "073254.857500", "073254.492500", "073254.870000", "073254.502500", "073254.880000", "073254.515000", "073254.890000", "073254.525000", "073254.902500", "073254.535000", "073254.912500", "073254.547500", "073254.922500", "073254.557500", "073254.932500", "073254.567500", "073254.945000", "073254.580000", "073254.955000", "073254.590000", "073254.965000", "073254.600000", "073254.977500", "073254.610000", "073254.987500", "073254.622500", "073254.997500", "073254.632500", "073255.010000", "073254.642500", "073255.020000", "073254.655000", "073255.030000", "073254.665000", "073255.040000", "073254.675000", "073255.052500", "073254.687500", "073255.062500", "073254.697500", "073255.072500", "073254.707500", "073255.085000", "073254.717500", "073255.095000", "073254.730000", "073255.105000", "073254.740000", "073255.117500", "073254.750000", "073255.127500", "073254.762500", "073255.137500", "073254.772500", "073255.147500", "073254.782500", "073255.160000", "073254.795000"], "ContentTime": ["073516.421000", "073516.343000", "073516.421000", "073516.359000", "073516.421000", "073516.359000", "073516.421000", "073516.359000", "073516.421000", "073516.359000", "073516.437000", "073516.359000", "073516.437000", "073516.359000", "073516.437000", "073516.359000", "073516.437000", "073516.359000", "073516.437000", "073516.375000", "073516.437000", "073516.375000", "073516.453000", "073516.375000", "073516.453000", "073516.375000", "073516.453000", "073516.375000", "073516.453000", "073516.375000", "073516.453000", "073516.390000", "073516.453000", "073516.390000", "073516.468000", "073516.390000", "073516.468000", "073516.390000", "073516.468000", "073516.390000", "073516.468000", "073516.390000", "073516.468000", "073516.390000", "073516.468000", "073516.390000", "073516.468000", "073516.406000", "073516.468000", "073516.406000", "073516.484000", "073516.406000", "073516.484000", "073516.406000", "073516.484000", "073516.406000", "073516.484000", "073516.406000", "073516.484000", "073516.406000", "073516.484000", "073516.406000", "073516.484000", "073516.406000", "073516.500000", "073516.421000", "073516.500000", "073516.421000"], "CsaImage.GSWDDataType": ["predicted", "predicted", "predicted", "predicted", "predicted", "predicted", "predicted", "predicted", "predicted", "predicted", "measured", "predicted", "measured", "predicted", "measured", "predicted", "measured", "predicted", "measured", "predicted", "measured", "predicted", "measured", "predicted", "measured", "predicted", "measured", "predicted", "measured", "predicted", "measured", "predicted", "measured", "predicted", "measured", "predicted", "measured", "predicted", "measured", "predicted", "measured", "predicted", "measured", "predicted", "measured", "predicted", "measured", "predicted", "measured", "predicted", "measured", "predicted", "measured", "predicted", "measured", "predicted", "measured", "predicted", "measured", "predicted", "measured", "predicted", "measured", "predicted", "measured", "predicted", "measured", "predicted"], "CsaImage.ICE_Dims": ["X_2_1_1_1_1_1_35_1_1_1_1_210", "X_2_1_1_1_1_1_1_1_1_2_1_210", "X_2_1_1_1_1_1_36_1_1_3_1_210", "X_2_1_1_1_1_1_2_1_1_4_1_210", "X_2_1_1_1_1_1_37_1_1_5_1_210", "X_2_1_1_1_1_1_3_1_1_6_1_210", "X_2_1_1_1_1_1_38_1_1_7_1_210", "X_2_1_1_1_1_1_4_1_1_8_1_210", "X_2_1_1_1_1_1_39_1_1_9_1_210", "X_2_1_1_1_1_1_5_1_1_10_1_210", "X_2_1_1_1_1_1_40_1_1_11_1_210", "X_2_1_1_1_1_1_6_1_1_12_1_210", "X_2_1_1_1_1_1_41_1_1_13_1_210", "X_2_1_1_1_1_1_7_1_1_14_1_210", "X_2_1_1_1_1_1_42_1_1_15_1_210", "X_2_1_1_1_1_1_8_1_1_16_1_210", "X_2_1_1_1_1_1_43_1_1_17_1_210", "X_2_1_1_1_1_1_9_1_1_18_1_210", "X_2_1_1_1_1_1_44_1_1_19_1_210", "X_2_1_1_1_1_1_10_1_1_20_1_210", "X_2_1_1_1_1_1_45_1_1_21_1_210", "X_2_1_1_1_1_1_11_1_1_22_1_210", "X_2_1_1_1_1_1_46_1_1_23_1_210", "X_2_1_1_1_1_1_12_1_1_24_1_210", "X_2_1_1_1_1_1_47_1_1_25_1_210", "X_2_1_1_1_1_1_13_1_1_26_1_210", "X_2_1_1_1_1_1_48_1_1_27_1_210", "X_2_1_1_1_1_1_14_1_1_28_1_210", "X_2_1_1_1_1_1_49_1_1_29_1_210", "X_2_1_1_1_1_1_15_1_1_30_1_210", "X_2_1_1_1_1_1_50_1_1_31_1_210", "X_2_1_1_1_1_1_16_1_1_32_1_210", "X_2_1_1_1_1_1_51_1_1_33_1_210", "X_2_1_1_1_1_1_17_1_1_34_1_210", "X_2_1_1_1_1_1_52_1_1_35_1_210", "X_2_1_1_1_1_1_18_1_1_36_1_210", "X_2_1_1_1_1_1_53_1_1_37_1_210", "X_2_1_1_1_1_1_19_1_1_38_1_210", "X_2_1_1_1_1_1_54_1_1_39_1_210", "X_2_1_1_1_1_1_20_1_1_40_1_210", "X_2_1_1_1_1_1_55_1_1_41_1_210", "X_2_1_1_1_1_1_21_1_1_42_1_210", "X_2_1_1_1_1_1_56_1_1_43_1_210", "X_2_1_1_1_1_1_22_1_1_44_1_210", "X_2_1_1_1_1_1_57_1_1_45_1_210", "X_2_1_1_1_1_1_23_1_1_46_1_210", "X_2_1_1_1_1_1_58_1_1_47_1_210", "X_2_1_1_1_1_1_24_1_1_48_1_210", "X_2_1_1_1_1_1_59_1_1_49_1_210", "X_2_1_1_1_1_1_25_1_1_50_1_210", "X_2_1_1_1_1_1_60_1_1_51_1_210", "X_2_1_1_1_1_1_26_1_1_52_1_210", "X_2_1_1_1_1_1_61_1_1_53_1_210", "X_2_1_1_1_1_1_27_1_1_54_1_210", "X_2_1_1_1_1_1_62_1_1_55_1_210", "X_2_1_1_1_1_1_28_1_1_56_1_210", "X_2_1_1_1_1_1_63_1_1_57_1_210", "X_2_1_1_1_1_1_29_1_1_58_1_210", "X_2_1_1_1_1_1_64_1_1_59_1_210", "X_2_1_1_1_1_1_30_1_1_60_1_210", "X_2_1_1_1_1_1_65_1_1_61_1_210", "X_2_1_1_1_1_1_31_1_1_62_1_210", "X_2_1_1_1_1_1_66_1_1_63_1_210", "X_2_1_1_1_1_1_32_1_1_64_1_210", "X_2_1_1_1_1_1_67_1_1_65_1_210", "X_2_1_1_1_1_1_33_1_1_66_1_210", "X_2_1_1_1_1_1_68_1_1_67_1_210", "X_2_1_1_1_1_1_34_1_1_68_1_210"], "CsaImage.ProtocolSliceNumber": [0, 1, 2, 3, 4, 5, 6, 7, 8, 9, 10, 11, 12, 13, 14, 15, 16, 17, 18, 19, 20, 21, 22, 23, 24, 25, 26, 27, 28, 29, 30, 31, 32, 33, 34, 35, 36, 37, 38, 39, 40, 41, 42, 43, 44, 45, 46, 47, 48, 49, 50, 51, 52, 53, 54, 55, 56, 57, 58, 59, 60, 61, 62, 63, 64, 65, 66, 67], "CsaImage.RFSWDDataType": ["predicted", "predicted", "predicted", "predicted", "predicted", "predicted", "measured", "predicted", "measured", "predicted", "measured", "predicted", "measured", "predicted", "measured", "predicted", "measured", "predicted", "measured", "predicted", "measured", "predicted", "measured", "predicted", "measured", "predicted", "measured", "predicted", "measured", "predicted", "measured", "predicted", "measured", "predicted", "measured", "predicted", "measured", "predicted", "measured", "predicted", "measured", "predicted", "measured", "predicted", "measured", "predicted", "measured", "predicted", "measured", "predicted", "measured", "predicted", "measured", "predicted", "measured", "predicted", "measured", "predicted", "measured", "predicted", "measured", "predicted", "measured", "predicted", "measured", "predicted", "measured", "predicted"], "CsaImage.SlicePosition_PCS": [[-114.28331042, -117.9561328, 30.55387401], [-114.4423678, -116.51829139, 32.46889781], [-114.60142518, -115.08045188, 34.38392162], [-114.76048256, -113.64261046, 36.29894542], [-114.9195397, -112.20477096, 38.21396922], [-115.07859707, -110.76692954, 40.12899303], [-115.23765457, -109.32909003, 42.04401683], [-115.39671183, -107.89124957, 43.95904064], [-115.55576921, -106.45340911, 45.87406349], [-115.71482659, -105.01556865, 47.78908729], [-115.87388397, -103.57772819, 49.70411109], [-116.03294135, -102.13988772, 51.6191349], [-116.19199867, -100.70204726, 53.53415822], [-116.35105605, -99.2642068, 55.44918203], [-116.51011342, -97.82636658, 57.36420559], [-116.6691708, -96.38852612, 59.27922916], [-116.82822815, -94.95068568, 61.19425284], [-116.9872855, -93.51284519, 63.10927653], [-117.14634286, -92.07500473, 65.02430009], [-117.30540023, -90.63716451, 66.9393239], [-117.46445758, -89.19932405, 68.8543477], [-117.62351496, -87.76148358, 70.76937103], [-117.78257228, -86.32364264, 72.68439483], [-117.94162965, -84.88580218, 74.59941863], [-118.10068703, -83.44796172, 76.51444244], [-118.25974441, -82.01012126, 78.42946529], [-118.41880179, -80.57228175, 80.34448909], [-118.57785905, -79.13444129, 82.2595129], [-118.73691643, -77.69659987, 84.1745367], [-118.89597381, -76.25876037, 86.0895605], [-119.05503119, -74.82091895, 88.00458431], [-119.21408845, -73.38307944, 89.91960811], [-119.37314582, -71.94523803, 91.83463191], [-119.5322032, -70.50739852, 93.74965381], [-119.69126058, -69.0695571, 95.66467761], [-119.85031796, -67.6317176, 97.57970142], [-120.00937534, -66.19387618, 99.49472522], [-120.16843272, -64.75603667, 101.40974903], [-120.3274901, -63.31819526, 103.32477283], [-120.48654748, -61.88035575, 105.23979663], [-120.64560485, -60.44251624, 107.15482044], [-120.80466223, -59.00467292, 109.06984424], [-120.96371961, -57.56683341, 110.98486804], [-121.12277699, -56.1289939, 112.89989185], [-121.28183437, -54.69115439, 114.81491565], [-121.44089151, -53.25331489, 116.72993945], [-121.59994913, -51.81547156, 118.64496326], [-121.75900627, -50.37763206, 120.55998706], [-121.91806388, -48.93979255, 122.47501087], [-122.07712103, -47.50195304, 124.39003467], [-122.23617864, -46.06410972, 126.30505466], [-122.39523578, -44.62627021, 128.22007846], [-122.55429292, -43.1884307, 130.13510227], [-122.71335054, -41.75059119, 132.05012607], [-122.87240768, -40.31274787, 133.96514987], [-123.0314653, -38.87490836, 135.88017368], [-123.19052244, -37.43706885, 137.79519748], [-123.34958006, -35.99922935, 139.71022128], [-123.5086372, -34.56138602, 141.62524509], [-123.66769481, -33.12354651, 143.54026889], [-123.82675195, -31.68570701, 145.4552927], [-123.98580957, -30.24786368, 147.3703165], [-124.14486671, -28.81002799, 149.2853403], [-124.30392433, -27.37218467, 151.20036411], [-124.46298147, -25.93434134, 153.11538791], [-124.62203861, -24.49650565, 155.03041171], [-124.78109623, -23.05866233, 156.94543552], [-124.94015337, -21.62082664, 158.86045932]], "CsaImage.TimeAfterStart": [1.0975, 0.7325, 1.11, 0.7425, 1.12, 0.755, 1.13, 0.765, 1.14, 0.775, 1.1525, 0.7875, 1.1625, 0.7975, 1.1725, 0.8075, 1.185, 0.8175, 1.195, 0.83, 1.205, 0.84, 1.2175, 0.85, 1.2275, 0.8625, 1.2375, 0.8725, 1.2475, 0.8825, 1.26, 0.895, 1.27, 0.905, 1.28, 0.915, 1.2925, 0.925, 1.3025, 0.9375, 1.3125, 0.9475, 1.325, 0.9575, 1.335, 0.97, 1.345, 0.98, 1.355, 0.99, 1.3675, 1.0025, 1.3775, 1.0125, 1.3875, 1.0225, 1.4, 1.0325, 1.41, 1.045, 1.42, 1.055, 1.4325, 1.065, 1.4425, 1.0775, 1.4525, 1.0875], "ImagePositionPatient": [[-114.28331041917, -117.95613280279, 30.553874009828], [-114.44236779794, -116.51829138739, 32.468897813539], [-114.60142517671, -115.08045187933, 34.383921617249], [-114.76048255548, -113.64261046393, 36.29894542096], [-114.91953969583, -112.20477095587, 38.213969224671], [-115.0785970746, -110.76692954046, 40.128993028382], [-115.23765457258, -109.32909003241, 42.044016832093], [-115.39671183214, -107.89124957068, 43.959040635804], [-115.55576921091, -106.45340910895, 45.874063485841], [-115.71482658968, -105.01556864721, 47.789087289552], [-115.87388396845, -103.57772818548, 49.704111093263], [-116.03294134721, -102.13988772375, 51.619134896974], [-116.19199866638, -100.70204726202, 53.534158223847], [-116.35105604515, -99.264206800291, 55.449182027558], [-116.51011342392, -97.826366576978, 57.364205592851], [-116.66917080269, -96.388526115247, 59.279229158143], [-116.82822815165, -94.950685683319, 61.194252842645], [-116.98728550062, -93.512845191785, 63.109276527146], [-117.14634286076, -92.075004730054, 65.024300092439], [-117.30540022835, -90.637164506742, 66.93932389615], [-117.46445757732, -89.199324045011, 68.854347699861], [-117.62351495609, -87.76148358328, 70.769371026734], [-117.78257227525, -86.323642644712, 72.684394830445], [-117.94162965402, -84.885802182981, 74.599418634156], [-118.10068703279, -83.44796172125, 76.514442437867], [-118.25974441156, -82.010121259519, 78.429465287904], [-118.41880179033, -80.572281751463, 80.344489091615], [-118.57785904989, -79.134441289732, 82.259512895326], [-118.73691642866, -77.696599874326, 84.174536699037], [-118.89597380743, -76.25876036627, 86.089560502748], [-119.0550311862, -74.820918950864, 88.004584306458], [-119.21408844576, -73.383079442808, 89.919608110169], [-119.37314582452, -71.945238027402, 91.83463191388], [-119.53220320329, -70.507398519346, 93.749653810243], [-119.69126058206, -69.069557103941, 95.664677613954], [-119.85031796083, -67.631717595884, 97.579701417664], [-120.0093753396, -66.193876180479, 99.494725221375], [-120.16843271837, -64.756036672422, 101.40974902509], [-120.32749009714, -63.318195257017, 103.3247728288], [-120.48654747591, -61.88035574896, 105.23979663251], [-120.64560485468, -60.442516240903, 107.15482043622], [-120.80466223344, -59.00467291815, 109.06984423993], [-120.96371961221, -57.566833410093, 110.98486804364], [-121.12277699098, -56.128993902036, 112.89989184735], [-121.28183436975, -54.69115439398, 114.81491565106], [-121.4408915101, -53.253314885923, 116.72993945477], [-121.59994912729, -51.815471563169, 118.64496325848], [-121.75900626764, -50.377632055112, 120.5599870622], [-121.91806388483, -48.939792547056, 122.47501086591], [-122.07712102518, -47.501953038999, 124.39003466962], [-122.23617864236, -46.064109716245, 126.30505465863], [-122.39523578272, -44.626270208189, 128.22007846234], [-122.55429292307, -43.188430700132, 130.13510226605], [-122.71335054025, -41.750591192075, 132.05012606976], [-122.8724076806, -40.312747869321, 133.96514987348], [-123.03146529779, -38.874908361265, 135.88017367719], [-123.19052243814, -37.437068853208, 137.7951974809], [-123.34958005533, -35.999229345151, 139.71022128461], [-123.50863719568, -34.561386022398, 141.62524508832], [-123.66769481287, -33.123546514341, 143.54026889203], [-123.82675195322, -31.685707006284, 145.45529269574], [-123.9858095704, -30.24786368353, 147.37031649945], [-124.14486671075, -28.810027990171, 149.28534030316], [-124.30392432794, -27.372184667417, 151.20036410687], [-124.46298146829, -25.934341344663, 153.11538791058], [-124.62203860864, -24.496505651304, 155.0304117143], [-124.78109622583, -23.05866232855, 156.94543551801], [-124.94015336618, -21.620826635191, 158.86045932172]], "InstanceCreationTime": ["073516.421000", "073516.343000", "073516.421000", "073516.359000", "073516.421000", "073516.359000", "073516.421000", "073516.359000", "073516.421000", "073516.359000", "073516.437000", "073516.359000", "073516.437000", "073516.359000", "073516.437000", "073516.359000", "073516.437000", "073516.359000", "073516.437000", "073516.375000", "073516.437000", "073516.375000", "073516.453000", "073516.375000", "073516.453000", "073516.375000", "073516.453000", "073516.375000", "073516.453000", "073516.375000", "073516.453000", "073516.390000", "073516.453000", "073516.390000", "073516.468000", "073516.390000", "073516.468000", "073516.390000", "073516.468000", "073516.390000", "073516.468000", "073516.390000", "073516.468000", "073516.390000", "073516.468000", "073516.390000", "073516.468000", "073516.406000", "073516.468000", "073516.406000", "073516.484000", "073516.406000", "073516.484000", "073516.406000", "073516.484000", "073516.406000", "073516.484000", "073516.406000", "073516.484000", "073516.406000", "073516.484000", "073516.406000", "073516.484000", "073516.406000", "073516.500000", "073516.421000", "073516.500000", "073516.421000"], "InstanceNumber": [1, 2, 3, 4, 5, 6, 7, 8, 9, 10, 11, 12, 13, 14, 15, 16, 17, 18, 19, 20, 21, 22, 23, 24, 25, 26, 27, 28, 29, 30, 31, 32, 33, 34, 35, 36, 37, 38, 39, 40, 41, 42, 43, 44, 45, 46, 47, 48, 49, 50, 51, 52, 53, 54, 55, 56, 57, 58, 59, 60, 61, 62, 63, 64, 65, 66, 67, 68], "LargestImagePixelValue": [4092, 4091, 4094, 4094, 4094, 4093, 4094, 4094, 4092, 4092, 4094, 4094, 4093, 4093, 4091, 4094, 4092, 4094, 4093, 4094, 4093, 4093, 4093, 4094, 4094, 4093, 4093, 4093, 4093, 4091, 4092, 4091, 4089, 4089, 4094, 4093, 4094, 4094, 4093, 4091, 4093, 4091, 4091, 4092, 4093, 4093, 4094, 4094, 4093, 4092, 4094, 4094, 4094, 4094, 4094, 4092, 4093, 4094, 4094, 4094, 4094, 4094, 4094, 4094, 4094, 4094, 4094, 4094], "SliceLocation": [-38.713791038855, -36.313790340027, -33.913790783892, -31.513790085064, -29.11379054473, -26.713789845902, -24.313790281867, -21.913790162286, -19.513790795766, -17.113790668285, -14.713790540803, -12.313790413322, -9.9137906702717, -7.5137905427903, -5.1137907483859, -2.713790811145, -0.3137907986134, 2.0862092496272, 4.4862091856337, 6.8862091695379, 9.2862092950442, 11.686209042045, 14.086209451249, 16.486209578731, 18.886209706212, 21.286209072731, 23.686208628867, 26.086208748448, 28.486209447275, 30.88620900341, 33.286209702238, 35.686209250473, 38.086209949301, 40.486207983512, 42.88620868234, 45.286208238475, 47.686208937303, 50.086208493438, 52.486209192265, 54.886208748401, 57.286208304536, 59.686210146056, 62.086209702191, 64.486209258326, 66.886208814461, 69.286208354795, 71.686210212117, 74.086209752451, 76.486209324387, 78.886208864721, 81.286207678195, 83.686207218529, 86.086206758863, 88.486206330799, 90.886208156519, 93.286207728455, 95.686207268789, 98.086206840725, 100.48620866644, 102.88620823838, 105.28620777871, 107.68620963604, 110.08620689098, 112.48620874831, 114.88621057403, 117.28620782897, 119.6862096863, 122.08620694124], "SmallestImagePixelValue": [0, 0, 0, 0, 0, 0, 0, 1, 0, 0, 0, 1, 4, 1, 4, 3, 0, 1, 4, 0, 2, 1, 0, 1, 1, 0, 1, 3, 2, 0, 2, 5, 4, 4, 0, 13, 3, 3, 7, 2, 1, 0, 0, 2, 1, 1, 0, 3, 0, 0, 1, 1, 10, 0, 3, 0, 1, 2, 1, 1, 0, 1, 1, 0, 0, 0, 0, 0], "WindowCenter": [-188.0, -200.0, -272.0, -402.0, -578.0, -482.0, -478.0, -516.0, -526.0, -544.0, -586.0, -630.0, -526.0, -520.0, -524.0, -526.0, -514.0, -472.0, -430.0, -418.0, -402.0, -356.0, -342.0, -326.0, -284.0, -246.0, -212.0, -222.0, -242.0, -264.0, -246.0, -228.0, -174.0, -162.0, -156.0, -172.0, -146.0, -144.0, -112.0, -112.0, -130.0, -148.0, -190.0, -172.0, -174.0, -186.0, -190.0, -176.0, -174.0, -254.0, -250.0, -248.0, -266.0, -290.0, -304.0, -332.0, -334.0, -336.0, -354.0, -374.0, -398.0, -446.0, -422.0, -440.0, -466.0, -462.0, -436.0, -450.0], "WindowWidth": [6254.0, 6286.0, 6118.0, 5318.0, 5000.0, 5046.0, 5040.0, 4994.0, 4970.0, 4936.0, 4858.0, 4766.0, 4728.0, 4676.0, 4660.0, 4614.0, 4580.0, 4548.0, 4518.0, 4468.0, 4382.0, 4364.0, 4246.0, 4218.0, 4178.0, 4136.0, 4102.0, 4080.0, 4084.0, 4066.0, 4070.0, 4100.0, 4110.0, 4106.0, 4162.0, 4188.0, 4214.0, 4222.0, 4202.0, 4240.0, 4248.0, 4268.0, 4242.0, 4232.0, 4250.0, 4252.0, 4286.0, 4244.0, 4276.0, 4316.0, 4292.0, 4342.0, 4292.0, 4312.0, 4330.0, 4374.0, 4412.0, 4474.0, 4558.0, 4646.0, 4666.0, 4780.0, 4842.0, 4882.0, 4926.0, 4998.0, 5028.0, 5046.0]}}}