{
    "AcquisitionMatrixPE": 96,
    "AcquisitionNumber": 1,
    "AcquisitionTime": "07:27:7.595000",
    "BandwidthPerPixelPhaseEncode": 33.602,
    "BaseResolution": 96,
    "BodyPartExamined": "BRAIN",
    "ConsistencyInfo": "N4_VD11D_LATEST_20110129",
    "ConversionSoftware": "dcm2niix",
    "ConversionSoftwareVersion": "v1.0.20210317",
    "DerivedVendorReportedEchoSpacing": 0.000620003,
    "DeviceSerialNumber": "45239",
    "DwellTime": 2.6e-06,
    "EchoTime": 0.03,
    "EchoTrainLength": 48,
    "EffectiveEchoSpacing": 0.000310001,
    "FlipAngle": 63,
    "ImageComments": "Unaliased MB4/PE3",
    "ImageOrientationPatientDICOM": [
        0.99972,
        -0.0213124,
        0.010257,
        0.0236521,
        0.900825,
        -0.433538
    ],
    "ImageType": [
        "ORIGINAL",
        "PRIMARY",
        "M",
        "ND",
        "NORM",
        "MOSAIC"
    ],
    "ImagingFrequency": 123.193,
    "InPlanePhaseEncodingDirectionDICOM": "COL",
    "InstitutionAddress": "E 24th St. 100,Austin,Southmiddle,US,78712",
    "InstitutionName": "Univ of Texas at Austin",
    "InstitutionalDepartmentName": "IRC",
    "MRAcquisitionType": "2D",
    "MagneticFieldStrength": 3,
    "Manufacturer": "Siemens",
    "ManufacturersModelName": "Skyra",
    "Modality": "MR",
    "MultibandAccelerationFactor": 4,
    "ParallelReductionFactorInPlane": 2,
    "PartialFourier": 1,
    "PatientPosition": "HFS",
    "PercentPhaseFOV": 100,
    "PercentSampling": 100,
    "PhaseEncodingDirection": "j-",
    "PhaseEncodingSteps": 96,
    "PhaseResolution": 1,
    "PixelBandwidth": 2005,
    "ProcedureStepDescription": "Poldrack2^self-scanning",
    "ProtocolName": "Resting State fMRI MBEPI_matrix96_BW2004",
    "PulseSequenceDetails": "%CustomerSeq%\\cmrr_mbep2d_bold",
    "ReceiveCoilActiveElements": "HEA;HEP",
    "ReceiveCoilName": "Head_32",
    "ReconMatrixPE": 96,
    "RefLinesPE": 94,
    "RepetitionTime": 1.16,
    "SAR": 0.100031,
    "ScanOptions": "FS",
    "ScanningSequence": "EP",
    "SequenceName": "epfid2d1_96",
    "SequenceVariant": "SK",
    "SeriesDescription": "Resting State fMRI MBEPI_matrix96_BW2004",
    "SeriesNumber": 9,
    "ShimSetting": [
        -2771,
        8055,
        -15446,
        188,
        -229,
        104,
        197,
        -62
    ],
    "SliceThickness": 2,
    "SliceTiming": [
        0,
        0.4975,
        0.9975,
        0.355,
        0.855,
        0.2125,
        0.7125,
        0.07,
        0.57,
        1.0675,
        0.4275,
        0.925,
        0.285,
        0.7825,
        0.1425,
        0.64,
        0,
        0.4975,
        0.9975,
        0.355,
        0.855,
        0.2125,
        0.7125,
        0.07,
        0.57,
        1.0675,
        0.4275,
        0.925,
        0.285,
        0.7825,
        0.1425,
        0.64,
        0,
        0.4975,
        0.9975,
        0.355,
        0.855,
        0.2125,
        0.7125,
        0.07,
        0.57,
        1.0675,
        0.4275,
        0.925,
        0.285,
        0.7825,
        0.1425,
        0.64,
        0,
        0.4975,
        0.9975,
        0.355,
        0.855,
        0.2125,
        0.7125,
        0.07,
        0.57,
        1.0675,
        0.4275,
        0.925,
        0.285,
        0.7825,
        0.1425,
        0.64
    ],
    "SoftwareVersions": "syngo MR D11",
    "SpacingBetweenSlices": 2.4,
    "StationName": "AWP45239",
    "TaskName": "Resting fmri",
    "TotalReadoutTime": 0.0294501,
    "TxRefAmp": 345.713,
    "WipMemBlock": "6331d0e6-c161-42fb-a21f-f3c7fd7ecf6b||Sequence: VD11D r195; Nov 21 2012 15:36:10 by eja",
    "dcmmeta_affine": [
        [
            -2.395163059234619,
            0.05666660517454147,
            2.3338243337889253e-08,
            115.15215301513672
        ],
        [
            0.05106096342206001,
            2.158226251602173,
            -1.040781855583191,
            -91.08165740966797
        ],
        [
            0.02457400970160961,
            1.0386842489242554,
            2.1625847816467285,
            -89.87014770507812
        ],
        [
            0.0,
            0.0,
            0.0,
            1.0
        ]
    ],
    "dcmmeta_reorient_transform": [
        [
            0.0,
            -1.0,
            0.0,
            95.0
        ],
        [
            1.0,
            0.0,
            0.0,
            0.0
        ],
        [
            0.0,
            0.0,
            1.0,
            0.0
        ],
        [
            0.0,
            0.0,
            0.0,
            1.0
        ]
    ],
    "dcmmeta_shape": [
        96,
        96,
        64,
        518
    ],
    "dcmmeta_slice_dim": 2,
    "dcmmeta_version": 0.6,
    "global": {
        "const": {
            "AcquisitionMatrix": [
                96,
                0,
                0,
                96
            ],
            "AngioFlag": "N",
            "BitsAllocated": 16,
            "BitsStored": 16,
            "BodyPartExamined": "BRAIN",
            "Columns": 768,
            "EchoNumbers": 1,
            "EchoTime": 30.0,
            "EchoTrainLength": 48,
            "FlipAngle": 63.0,
            "HighBit": 15,
            "ImageOrientationPatient": [
                0.99972024879745,
                -0.0213124034958,
                0.0102569781905,
                0.02365214883196,
                0.90082493957341,
                -0.433537777014
            ],
            "ImagePositionPatient": [
                -944.35023393765,
                -821.95741360024,
                349.54588547663
            ],
            "ImageType": [
                "ORIGINAL",
                "PRIMARY",
                "M",
                "ND",
                "NORM",
                "MOSAIC"
            ],
            "ImagedNucleus": "1H",
            "ImagingFrequency": 123.19325,
            "InPlanePhaseEncodingDirection": "COL",
            "MRAcquisitionType": "2D",
            "MagneticFieldStrength": 3.0,
            "Manufacturer": "SIEMENS",
            "ManufacturerModelName": "Skyra",
            "Modality": "MR",
            "NumberOfAverages": 1.0,
            "NumberOfPhaseEncodingSteps": 96,
            "PercentPhaseFieldOfView": 100.0,
            "PercentSampling": 100.0,
            "PerformedProcedureStepStartTime": "070927.234000",
            "PhotometricInterpretation": "MONOCHROME2",
            "PixelBandwidth": 2005.0,
            "PixelRepresentation": 0,
            "PixelSpacing": [
                2.3958332538605,
                2.3958332538605
            ],
            "ProtocolName": "Resting State fMRI MBEPI_matrix96_BW2004",
            "RepetitionTime": 1160.0,
            "Rows": 768,
            "SAR": 0.10003127619633,
            "SamplesPerPixel": 1,
            "ScanOptions": "FS",
            "ScanningSequence": "EP",
            "SequenceName": "epfid2d1_96",
            "SequenceVariant": "SK",
            "SeriesDescription": "Resting State fMRI MBEPI_matrix96_BW2004",
            "SeriesNumber": 9,
            "SeriesTime": "072752.671000",
            "SliceLocation": -41.481534263531,
            "SliceThickness": 2.0,
            "SmallestImagePixelValue": 0,
            "SoftwareVersions": "syngo MR D11",
            "SpacingBetweenSlices": 2.399999980301,
            "SpecificCharacterSet": "ISO_IR 100",
            "StudyID": "1",
            "StudyTime": "070927.187000",
            "TransmitCoilName": "Body",
            "VariableFlipAngleFlag": "N",
            "WindowCenterWidthExplanation": "Algo1",
            "dBdt": 0.0
        },
        "slices": {}
    },
    "time": {
        "samples": {
            "AcquisitionNumber": [
                1,
                2,
                3,
                4,
                5,
                6,
                7,
                8,
                9,
                10,
                11,
                12,
                13,
                14,
                15,
                16,
                17,
                18,
                19,
                20,
                21,
                22,
                23,
                24,
                25,
                26,
                27,
                28,
                29,
                30,
                31,
                32,
                33,
                34,
                35,
                36,
                37,
                38,
                39,
                40,
                41,
                42,
                43,
                44,
                45,
                46,
                47,
                48,
                49,
                50,
                51,
                52,
                53,
                54,
                55,
                56,
                57,
                58,
                59,
                60,
                61,
                62,
                63,
                64,
                65,
                66,
                67,
                68,
                69,
                70,
                71,
                72,
                73,
                74,
                75,
                76,
                77,
                78,
                79,
                80,
                81,
                82,
                83,
                84,
                85,
                86,
                87,
                88,
                89,
                90,
                91,
                92,
                93,
                94,
                95,
                96,
                97,
                98,
                99,
                100,
                101,
                102,
                103,
                104,
                105,
                106,
                107,
                108,
                109,
                110,
                111,
                112,
                113,
                114,
                115,
                116,
                117,
                118,
                119,
                120,
                121,
                122,
                123,
                124,
                125,
                126,
                127,
                128,
                129,
                130,
                131,
                132,
                133,
                134,
                135,
                136,
                137,
                138,
                139,
                140,
                141,
                142,
                143,
                144,
                145,
                146,
                147,
                148,
                149,
                150,
                151,
                152,
                153,
                154,
                155,
                156,
                157,
                158,
                159,
                160,
                161,
                162,
                163,
                164,
                165,
                166,
                167,
                168,
                169,
                170,
                171,
                172,
                173,
                174,
                175,
                176,
                177,
                178,
                179,
                180,
                181,
                182,
                183,
                184,
                185,
                186,
                187,
                188,
                189,
                190,
                191,
                192,
                193,
                194,
                195,
                196,
                197,
                198,
                199,
                200,
                201,
                202,
                203,
                204,
                205,
                206,
                207,
                208,
                209,
                210,
                211,
                212,
                213,
                214,
                215,
                216,
                217,
                218,
                219,
                220,
                221,
                222,
                223,
                224,
                225,
                226,
                227,
                228,
                229,
                230,
                231,
                232,
                233,
                234,
                235,
                236,
                237,
                238,
                239,
                240,
                241,
                242,
                243,
                244,
                245,
                246,
                247,
                248,
                249,
                250,
                251,
                252,
                253,
                254,
                255,
                256,
                257,
                258,
                259,
                260,
                261,
                262,
                263,
                264,
                265,
                266,
                267,
                268,
                269,
                270,
                271,
                272,
                273,
                274,
                275,
                276,
                277,
                278,
                279,
                280,
                281,
                282,
                283,
                284,
                285,
                286,
                287,
                288,
                289,
                290,
                291,
                292,
                293,
                294,
                295,
                296,
                297,
                298,
                299,
                300,
                301,
                302,
                303,
                304,
                305,
                306,
                307,
                308,
                309,
                310,
                311,
                312,
                313,
                314,
                315,
                316,
                317,
                318,
                319,
                320,
                321,
                322,
                323,
                324,
                325,
                326,
                327,
                328,
                329,
                330,
                331,
                332,
                333,
                334,
                335,
                336,
                337,
                338,
                339,
                340,
                341,
                342,
                343,
                344,
                345,
                346,
                347,
                348,
                349,
                350,
                351,
                352,
                353,
                354,
                355,
                356,
                357,
                358,
                359,
                360,
                361,
                362,
                363,
                364,
                365,
                366,
                367,
                368,
                369,
                370,
                371,
                372,
                373,
                374,
                375,
                376,
                377,
                378,
                379,
                380,
                381,
                382,
                383,
                384,
                385,
                386,
                387,
                388,
                389,
                390,
                391,
                392,
                393,
                394,
                395,
                396,
                397,
                398,
                399,
                400,
                401,
                402,
                403,
                404,
                405,
                406,
                407,
                408,
                409,
                410,
                411,
                412,
                413,
                414,
                415,
                416,
                417,
                418,
                419,
                420,
                421,
                422,
                423,
                424,
                425,
                426,
                427,
                428,
                429,
                430,
                431,
                432,
                433,
                434,
                435,
                436,
                437,
                438,
                439,
                440,
                441,
                442,
                443,
                444,
                445,
                446,
                447,
                448,
                449,
                450,
                451,
                452,
                453,
                454,
                455,
                456,
                457,
                458,
                459,
                460,
                461,
                462,
                463,
                464,
                465,
                466,
                467,
                468,
                469,
                470,
                471,
                472,
                473,
                474,
                475,
                476,
                477,
                478,
                479,
                480,
                481,
                482,
                483,
                484,
                485,
                486,
                487,
                488,
                489,
                490,
                491,
                492,
                493,
                494,
                495,
                496,
                497,
                498,
                499,
                500,
                501,
                502,
                503,
                504,
                505,
                506,
                507,
                508,
                509,
                510,
                511,
                512,
                513,
                514,
                515,
                516,
                517,
                518
            ],
            "AcquisitionTime": [
                "072707.595000",
                "072736.595000",
                "072737.755000",
                "072738.915000",
                "072740.075000",
                "072741.235000",
                "072742.395000",
                "072743.555000",
                "072744.715000",
                "072745.875000",
                "072747.035000",
                "072748.195000",
                "072749.355000",
                "072750.515000",
                "072751.675000",
                "072752.835000",
                "072753.995000",
                "072755.155000",
                "072756.315000",
                "072757.475000",
                "072758.635000",
                "072759.795000",
                "072800.955000",
                "072802.115000",
                "072803.275000",
                "072804.435000",
                "072805.595000",
                "072806.755000",
                "072807.915000",
                "072809.075000",
                "072810.235000",
                "072811.395000",
                "072812.555000",
                "072813.715000",
                "072814.875000",
                "072816.035000",
                "072817.195000",
                "072818.355000",
                "072819.515000",
                "072820.675000",
                "072821.835000",
                "072822.995000",
                "072824.155000",
                "072825.315000",
                "072826.475000",
                "072827.635000",
                "072828.795000",
                "072829.955000",
                "072831.115000",
                "072832.275000",
                "072833.435000",
                "072834.595000",
                "072835.755000",
                "072836.915000",
                "072838.075000",
                "072839.235000",
                "072840.395000",
                "072841.555000",
                "072842.715000",
                "072843.875000",
                "072845.035000",
                "072846.195000",
                "072847.355000",
                "072848.515000",
                "072849.675000",
                "072850.835000",
                "072851.995000",
                "072853.155000",
                "072854.315000",
                "072855.475000",
                "072856.635000",
                "072857.795000",
                "072858.955000",
                "072900.115000",
                "072901.275000",
                "072902.435000",
                "072903.595000",
                "072904.755000",
                "072905.915000",
                "072907.075000",
                "072908.235000",
                "072909.395000",
                "072910.555000",
                "072911.715000",
                "072912.875000",
                "072914.035000",
                "072915.195000",
                "072916.355000",
                "072917.515000",
                "072918.675000",
                "072919.835000",
                "072920.995000",
                "072922.155000",
                "072923.315000",
                "072924.475000",
                "072925.635000",
                "072926.795000",
                "072927.955000",
                "072929.115000",
                "072930.275000",
                "072931.435000",
                "072932.595000",
                "072933.755000",
                "072934.915000",
                "072936.075000",
                "072937.235000",
                "072938.395000",
                "072939.555000",
                "072940.715000",
                "072941.875000",
                "072943.035000",
                "072944.195000",
                "072945.355000",
                "072946.515000",
                "072947.675000",
                "072948.835000",
                "072949.995000",
                "072951.155000",
                "072952.315000",
                "072953.475000",
                "072954.635000",
                "072955.795000",
                "072956.955000",
                "072958.115000",
                "072959.275000",
                "073000.435000",
                "073001.595000",
                "073002.755000",
                "073003.915000",
                "073005.075000",
                "073006.235000",
                "073007.395000",
                "073008.555000",
                "073009.715000",
                "073010.875000",
                "073012.035000",
                "073013.195000",
                "073014.355000",
                "073015.515000",
                "073016.675000",
                "073017.835000",
                "073018.995000",
                "073020.155000",
                "073021.315000",
                "073022.477500",
                "073023.637500",
                "073024.797500",
                "073025.957500",
                "073027.117500",
                "073028.277500",
                "073029.437500",
                "073030.597500",
                "073031.757500",
                "073032.917500",
                "073034.077500",
                "073035.237500",
                "073036.397500",
                "073037.557500",
                "073038.717500",
                "073039.877500",
                "073041.037500",
                "073042.197500",
                "073043.357500",
                "073044.517500",
                "073045.677500",
                "073046.837500",
                "073047.997500",
                "073049.157500",
                "073050.317500",
                "073051.477500",
                "073052.637500",
                "073053.797500",
                "073054.957500",
                "073056.117500",
                "073057.277500",
                "073058.437500",
                "073059.597500",
                "073100.757500",
                "073101.917500",
                "073103.077500",
                "073104.237500",
                "073105.397500",
                "073106.557500",
                "073107.717500",
                "073108.877500",
                "073110.037500",
                "073111.197500",
                "073112.357500",
                "073113.517500",
                "073114.677500",
                "073115.837500",
                "073116.997500",
                "073118.157500",
                "073119.317500",
                "073120.477500",
                "073121.637500",
                "073122.797500",
                "073123.957500",
                "073125.117500",
                "073126.277500",
                "073127.437500",
                "073128.597500",
                "073129.757500",
                "073130.917500",
                "073132.077500",
                "073133.237500",
                "073134.397500",
                "073135.557500",
                "073136.717500",
                "073137.877500",
                "073139.037500",
                "073140.197500",
                "073141.357500",
                "073142.517500",
                "073143.677500",
                "073144.837500",
                "073145.997500",
                "073147.157500",
                "073148.317500",
                "073149.477500",
                "073150.637500",
                "073151.797500",
                "073152.957500",
                "073154.117500",
                "073155.277500",
                "073156.437500",
                "073157.597500",
                "073158.757500",
                "073159.917500",
                "073201.077500",
                "073202.237500",
                "073203.397500",
                "073204.557500",
                "073205.717500",
                "073206.877500",
                "073208.037500",
                "073209.197500",
                "073210.357500",
                "073211.517500",
                "073212.677500",
                "073213.837500",
                "073214.997500",
                "073216.157500",
                "073217.317500",
                "073218.477500",
                "073219.637500",
                "073220.797500",
                "073221.957500",
                "073223.117500",
                "073224.277500",
                "073225.437500",
                "073226.597500",
                "073227.757500",
                "073228.917500",
                "073230.077500",
                "073231.237500",
                "073232.397500",
                "073233.557500",
                "073234.717500",
                "073235.877500",
                "073237.037500",
                "073238.197500",
                "073239.357500",
                "073240.517500",
                "073241.677500",
                "073242.837500",
                "073243.997500",
                "073245.157500",
                "073246.317500",
                "073247.477500",
                "073248.637500",
                "073249.797500",
                "073250.957500",
                "073252.117500",
                "073253.277500",
                "073254.437500",
                "073255.597500",
                "073256.757500",
                "073257.917500",
                "073259.077500",
                "073300.237500",
                "073301.397500",
                "073302.557500",
                "073303.717500",
                "073304.877500",
                "073306.037500",
                "073307.197500",
                "073308.357500",
                "073309.517500",
                "073310.677500",
                "073311.837500",
                "073312.997500",
                "073314.157500",
                "073315.317500",
                "073316.477500",
                "073317.637500",
                "073318.797500",
                "073319.957500",
                "073321.117500",
                "073322.277500",
                "073323.437500",
                "073324.597500",
                "073325.757500",
                "073326.917500",
                "073328.077500",
                "073329.237500",
                "073330.397500",
                "073331.557500",
                "073332.717500",
                "073333.877500",
                "073335.037500",
                "073336.197500",
                "073337.357500",
                "073338.517500",
                "073339.677500",
                "073340.837500",
                "073341.997500",
                "073343.157500",
                "073344.317500",
                "073345.477500",
                "073346.637500",
                "073347.797500",
                "073348.957500",
                "073350.117500",
                "073351.277500",
                "073352.437500",
                "073353.597500",
                "073354.757500",
                "073355.917500",
                "073357.077500",
                "073358.237500",
                "073359.397500",
                "073400.557500",
                "073401.717500",
                "073402.877500",
                "073404.037500",
                "073405.197500",
                "073406.357500",
                "073407.517500",
                "073408.677500",
                "073409.837500",
                "073410.997500",
                "073412.157500",
                "073413.317500",
                "073414.477500",
                "073415.637500",
                "073416.797500",
