{
    "AcquisitionMatrixPE": 96,
    "AcquisitionNumber": 1,
    "AcquisitionTime": "17:10:22.860000",
    "BandwidthPerPixelPhaseEncode": 33.602,
    "BaseResolution": 96,
    "BodyPartExamined": "BRAIN",
    "ConsistencyInfo": "N4_VD11D_LATEST_20110129",
    "ConversionSoftware": "dcm2niix",
    "ConversionSoftwareVersion": "v1.0.20210317",
    "DerivedVendorReportedEchoSpacing": 0.000620003,
    "DeviceSerialNumber": "45239",
    "DwellTime": 2.6e-06,
    "EchoTime": 0.03,
    "EchoTrainLength": 48,
    "EffectiveEchoSpacing": 0.000310001,
    "FlipAngle": 63,
    "ImageComments": "Unaliased MB4/PE3",
    "ImageOrientationPatientDICOM": [
        0.999854,
        0.0145871,
        -0.00886912,
        -0.0170718,
        0.854334,
        -0.519443
    ],
    "ImageType": [
        "ORIGINAL",
        "PRIMARY",
        "M",
        "ND",
        "NORM",
        "MOSAIC"
    ],
    "ImagingFrequency": 123.193,
    "InPlanePhaseEncodingDirectionDICOM": "COL",
    "InstitutionAddress": "E 24th St. 100,Austin,Southmiddle,US,78712",
    "InstitutionName": "Univ of Texas at Austin",
    "InstitutionalDepartmentName": "IRC",
    "MRAcquisitionType": "2D",
    "MagneticFieldStrength": 3,
    "Manufacturer": "Siemens",
    "ManufacturersModelName": "Skyra",
    "Modality": "MR",
    "MultibandAccelerationFactor": 4,
    "ParallelReductionFactorInPlane": 2,
    "PartialFourier": 1,
    "PatientPosition": "HFS",
    "PercentPhaseFOV": 100,
    "PercentSampling": 100,
    "PhaseEncodingDirection": "j-",
    "PhaseEncodingSteps": 96,
    "PhaseResolution": 1,
    "PixelBandwidth": 2005,
    "ProcedureStepDescription": "Poldrack2^self-scanning",
    "ProtocolName": "Resting State fMRI MBEPI_matrix96_BW2004",
    "PulseSequenceDetails": "%CustomerSeq%\\cmrr_mbep2d_bold",
    "ReceiveCoilActiveElements": "HEA;HEP",
    "ReceiveCoilName": "Head_32",
    "ReconMatrixPE": 96,
    "RefLinesPE": 94,
    "RepetitionTime": 1.16,
    "SAR": 0.103874,
    "ScanOptions": "FS",
    "ScanningSequence": "EP",
    "SequenceName": "epfid2d1_96",
    "SequenceVariant": "SK",
    "SeriesDescription": "Resting State fMRI MBEPI_matrix96_BW2004",
    "SeriesNumber": 9,
    "ShimSetting": [
        -2803,
        8049,
        -15431,
        162,
        -231,
        112,
        190,
        -98
    ],
    "SliceThickness": 2,
    "SliceTiming": [
        0,
        0.6125,
        0.0675,
        0.68,
        0.135,
        0.75,
        0.2025,
        0.8175,
        0.2725,
        0.885,
        0.34,
        0.9525,
        0.4075,
        1.0225,
        0.4775,
        1.09,
        0.545,
        0,
        0.6125,
        0.0675,
        0.68,
        0.135,
        0.75,
        0.2025,
        0.8175,
        0.2725,
        0.885,
        0.34,
        0.9525,
        0.4075,
        1.0225,
        0.4775,
        1.09,
        0.545,
        0,
        0.6125,
        0.0675,
        0.68,
        0.135,
        0.75,
        0.2025,
        0.8175,
        0.2725,
        0.885,
        0.34,
        0.9525,
        0.4075,
        1.0225,
        0.4775,
        1.09,
        0.545,
        0,
        0.6125,
        0.0675,
        0.68,
        0.135,
        0.75,
        0.2025,
        0.8175,
        0.2725,
        0.885,
        0.34,
        0.9525,
        0.4075,
        1.0225,
        0.4775,
        1.09,
        0.545
    ],
    "SoftwareVersions": "syngo MR D11",
    "SpacingBetweenSlices": 2.4,
    "StationName": "AWP45239",
    "TaskName": "Resting fmri",
    "TotalReadoutTime": 0.0294501,
    "TxRefAmp": 344.798,
    "WipMemBlock": "44dd2b6b-ce2b-4ddd-ae26-135659be0755||Sequence: VD11D r154; May 23 2012 22:27:19 by eja",
    "dcmmeta_affine": [
        [
            -2.395484209060669,
            -0.04090109467506409,
            -5.044642037432823e-08,
            121.61529541015625
        ],
        [
            -0.03494827449321747,
            2.046842575073242,
            -1.2468458414077759,
            -74.14417266845703
        ],
        [
            -0.021248942241072655,
            1.2444998025894165,
            2.050701141357422,
            -78.6867446899414
        ],
        [
            0.0,
            0.0,
            0.0,
            1.0
        ]
    ],
    "dcmmeta_reorient_transform": [
        [
            0.0,
            -1.0,
            0.0,
            95.0
        ],
        [
            1.0,
            0.0,
            0.0,
            0.0
        ],
        [
            0.0,
            0.0,
            1.0,
            0.0
        ],
        [
            0.0,
            0.0,
            0.0,
            1.0
        ]
    ],
    "dcmmeta_shape": [
        96,
        96,
        68,
        518
    ],
    "dcmmeta_slice_dim": 2,
    "dcmmeta_version": 0.6,
    "global": {
        "const": {
            "AcquisitionMatrix": [
                96,
                0,
                0,
                96
            ],
            "AngioFlag": "N",
            "BitsAllocated": 16,
            "BitsStored": 16,
            "BodyPartExamined": "BRAIN",
            "Columns": 864,
            "EchoNumbers": 1,
            "EchoTime": 30.0,
            "EchoTrainLength": 48,
            "FlipAngle": 63.0,
            "HighBit": 15,
            "ImageOrientationPatient": [
                0.9998542668635,
                0.01458710638007,
                -0.0088691241003,
                -0.0170717613283,
                0.8543343123652,
                -0.5194433921811
            ],
            "ImagePositionPatient": [
                -1021.8895677016,
                -919.71354808468,
                525.58823388159
            ],
            "ImageType": [
                "ORIGINAL",
                "PRIMARY",
                "M",
                "ND",
                "NORM",
                "MOSAIC"
            ],
            "ImagedNucleus": "1H",
            "ImagingFrequency": 123.193382,
            "InPlanePhaseEncodingDirection": "COL",
            "MRAcquisitionType": "2D",
            "MagneticFieldStrength": 3.0,
            "Manufacturer": "SIEMENS",
            "ManufacturerModelName": "Skyra",
            "Modality": "MR",
            "NumberOfAverages": 1.0,
            "NumberOfPhaseEncodingSteps": 96,
            "PercentPhaseFieldOfView": 100.0,
            "PercentSampling": 100.0,
            "PerformedProcedureStepStartTime": "170240.234000",
            "PhotometricInterpretation": "MONOCHROME2",
            "PixelBandwidth": 2005.0,
            "PixelRepresentation": 0,
            "PixelSpacing": [
                2.3958332538605,
                2.3958332538605
            ],
            "ProtocolName": "Resting State fMRI MBEPI_matrix96_BW2004",
            "RepetitionTime": 1160.0,
            "Rows": 864,
            "SAR": 0.10387414099091,
            "SamplesPerPixel": 1,
            "ScanOptions": "FS",
            "ScanningSequence": "EP",
            "SequenceName": "epfid2d1_96",
            "SequenceVariant": "SK",
            "SeriesDescription": "Resting State fMRI MBEPI_matrix96_BW2004",
            "SeriesNumber": 9,
            "SeriesTime": "171110.781000",
            "SliceLocation": -28.715269494184,
            "SliceThickness": 2.0,
            "SmallestImagePixelValue": 0,
            "SoftwareVersions": "syngo MR D11",
            "SpacingBetweenSlices": 2.4000000067383,
            "SpecificCharacterSet": "ISO_IR 100",
            "StudyID": "1",
            "StudyTime": "170240.203000",
            "TransmitCoilName": "Body",
            "VariableFlipAngleFlag": "N",
            "WindowCenterWidthExplanation": "Algo1",
            "dBdt": 0.0
        },
        "slices": {}
    },
    "time": {
        "samples": {
            "AcquisitionNumber": [
                1,
                2,
                3,
                4,
                5,
                6,
                7,
                8,
                9,
                10,
                11,
                12,
                13,
                14,
                15,
                16,
                17,
                18,
                19,
                20,
                21,
                22,
                23,
                24,
                25,
                26,
                27,
                28,
                29,
                30,
                31,
                32,
                33,
                34,
                35,
                36,
                37,
                38,
                39,
                40,
                41,
                42,
                43,
                44,
                45,
                46,
                47,
                48,
                49,
                50,
                51,
                52,
                53,
                54,
                55,
                56,
                57,
                58,
                59,
                60,
                61,
                62,
                63,
                64,
                65,
                66,
                67,
                68,
                69,
                70,
                71,
                72,
                73,
                74,
                75,
                76,
                77,
                78,
                79,
                80,
                81,
                82,
                83,
                84,
                85,
                86,
                87,
                88,
                89,
                90,
                91,
                92,
                93,
                94,
                95,
                96,
                97,
                98,
                99,
                100,
                101,
                102,
                103,
                104,
                105,
                106,
                107,
                108,
                109,
                110,
                111,
                112,
                113,
                114,
                115,
                116,
                117,
                118,
                119,
                120,
                121,
                122,
                123,
                124,
                125,
                126,
                127,
                128,
                129,
                130,
                131,
                132,
                133,
                134,
                135,
                136,
                137,
                138,
                139,
                140,
                141,
                142,
                143,
                144,
                145,
                146,
                147,
                148,
                149,
                150,
                151,
                152,
                153,
                154,
                155,
                156,
                157,
                158,
                159,
                160,
                161,
                162,
                163,
                164,
                165,
                166,
                167,
                168,
                169,
                170,
                171,
                172,
                173,
                174,
                175,
                176,
                177,
                178,
                179,
                180,
                181,
                182,
                183,
                184,
                185,
                186,
                187,
                188,
                189,
                190,
                191,
                192,
                193,
                194,
                195,
                196,
                197,
                198,
                199,
                200,
                201,
                202,
                203,
                204,
                205,
                206,
                207,
                208,
                209,
                210,
                211,
                212,
                213,
                214,
                215,
                216,
                217,
                218,
                219,
                220,
                221,
                222,
                223,
                224,
                225,
                226,
                227,
                228,
                229,
                230,
                231,
                232,
                233,
                234,
                235,
                236,
                237,
                238,
                239,
                240,
                241,
                242,
                243,
                244,
                245,
                246,
                247,
                248,
                249,
                250,
                251,
                252,
                253,
                254,
                255,
                256,
                257,
                258,
                259,
                260,
                261,
                262,
                263,
                264,
                265,
                266,
                267,
                268,
                269,
                270,
                271,
                272,
                273,
                274,
                275,
                276,
                277,
                278,
                279,
                280,
                281,
                282,
                283,
                284,
                285,
                286,
                287,
                288,
                289,
                290,
                291,
                292,
                293,
                294,
                295,
                296,
                297,
                298,
                299,
                300,
                301,
                302,
                303,
                304,
                305,
                306,
                307,
                308,
                309,
                310,
                311,
                312,
                313,
                314,
                315,
                316,
                317,
                318,
                319,
                320,
                321,
                322,
                323,
                324,
                325,
                326,
                327,
                328,
                329,
                330,
                331,
                332,
                333,
                334,
                335,
                336,
                337,
                338,
                339,
                340,
                341,
                342,
                343,
                344,
                345,
                346,
                347,
                348,
                349,
                350,
                351,
                352,
                353,
                354,
                355,
                356,
                357,
                358,
                359,
                360,
                361,
                362,
                363,
                364,
                365,
                366,
                367,
                368,
                369,
                370,
                371,
                372,
                373,
                374,
                375,
                376,
                377,
                378,
                379,
                380,
                381,
                382,
                383,
                384,
                385,
                386,
                387,
                388,
                389,
                390,
                391,
                392,
                393,
                394,
                395,
                396,
                397,
                398,
                399,
                400,
                401,
                402,
                403,
                404,
                405,
                406,
                407,
                408,
                409,
                410,
                411,
                412,
                413,
                414,
                415,
                416,
                417,
                418,
                419,
                420,
                421,
                422,
                423,
                424,
                425,
                426,
                427,
                428,
                429,
                430,
                431,
                432,
                433,
                434,
                435,
                436,
                437,
                438,
                439,
                440,
                441,
                442,
                443,
                444,
                445,
                446,
                447,
                448,
                449,
                450,
                451,
                452,
                453,
                454,
                455,
                456,
                457,
                458,
                459,
                460,
                461,
                462,
                463,
                464,
                465,
                466,
                467,
                468,
                469,
                470,
                471,
                472,
                473,
                474,
                475,
                476,
                477,
                478,
                479,
                480,
                481,
                482,
                483,
                484,
                485,
                486,
                487,
                488,
                489,
                490,
                491,
                492,
                493,
                494,
                495,
                496,
                497,
                498,
                499,
                500,
                501,
                502,
                503,
                504,
                505,
                506,
                507,
                508,
                509,
                510,
                511,
                512,
                513,
                514,
                515,
                516,
                517,
                518
            ],
            "AcquisitionTime": [
                "171022.860000",
                "171051.860000",
                "171053.020000",
                "171054.180000",
                "171055.340000",
                "171056.500000",
                "171057.660000",
                "171058.820000",
                "171059.980000",
                "171101.140000",
                "171102.300000",
                "171103.460000",
                "171104.620000",
                "171105.780000",
                "171106.940000",
                "171108.100000",
                "171109.260000",
                "171110.420000",
                "171111.580000",
                "171112.740000",
                "171113.900000",
                "171115.060000",
                "171116.220000",
                "171117.380000",
                "171118.540000",
                "171119.700000",
                "171120.860000",
                "171122.020000",
                "171123.180000",
                "171124.340000",
                "171125.500000",
                "171126.660000",
                "171127.820000",
                "171128.980000",
                "171130.140000",
                "171131.300000",
                "171132.460000",
                "171133.620000",
                "171134.780000",
                "171135.940000",
                "171137.100000",
                "171138.260000",
                "171139.420000",
                "171140.580000",
                "171141.740000",
                "171142.900000",
                "171144.060000",
                "171145.220000",
                "171146.380000",
                "171147.540000",
                "171148.700000",
                "171149.860000",
                "171151.020000",
                "171152.180000",
                "171153.340000",
                "171154.500000",
                "171155.660000",
                "171156.820000",
                "171157.980000",
                "171159.140000",
                "171200.300000",
                "171201.460000",
                "171202.620000",
                "171203.780000",
                "171204.940000",
                "171206.100000",
                "171207.260000",
                "171208.420000",
                "171209.580000",
                "171210.740000",
                "171211.900000",
                "171213.060000",
                "171214.220000",
                "171215.380000",
                "171216.540000",
                "171217.700000",
                "171218.860000",
                "171220.020000",
                "171221.180000",
                "171222.340000",
                "171223.500000",
                "171224.660000",
                "171225.820000",
                "171226.980000",
                "171228.140000",
                "171229.300000",
                "171230.460000",
                "171231.620000",
                "171232.780000",
                "171233.940000",
                "171235.100000",
                "171236.260000",
                "171237.420000",
                "171238.580000",
                "171239.740000",
                "171240.900000",
                "171242.060000",
                "171243.220000",
                "171244.380000",
                "171245.540000",
                "171246.700000",
                "171247.860000",
                "171249.020000",
                "171250.180000",
                "171251.340000",
                "171252.500000",
                "171253.660000",
                "171254.820000",
                "171255.980000",
                "171257.140000",
                "171258.300000",
                "171259.460000",
                "171300.620000",
                "171301.780000",
                "171302.940000",
                "171304.100000",
                "171305.260000",
                "171306.420000",
                "171307.580000",
                "171308.740000",
                "171309.900000",
                "171311.060000",
                "171312.220000",
                "171313.380000",
                "171314.540000",
                "171315.700000",
                "171316.860000",
                "171318.020000",
                "171319.180000",
                "171320.340000",
                "171321.500000",
                "171322.660000",
                "171323.820000",
                "171324.980000",
                "171326.140000",
                "171327.300000",
                "171328.460000",
                "171329.620000",
                "171330.780000",
                "171331.940000",
                "171333.100000",
                "171334.260000",
                "171335.420000",
                "171336.580000",
                "171337.740000",
                "171338.900000",
                "171340.060000",
                "171341.220000",
                "171342.380000",
                "171343.540000",
                "171344.700000",
                "171345.860000",
                "171347.020000",
                "171348.180000",
                "171349.340000",
                "171350.500000",
                "171351.660000",
                "171352.820000",
                "171353.980000",
                "171355.140000",
                "171356.300000",
                "171357.460000",
                "171358.620000",
                "171359.780000",
                "171400.940000",
                "171402.100000",
                "171403.260000",
                "171404.420000",
                "171405.580000",
                "171406.740000",
                "171407.900000",
                "171409.060000",
                "171410.220000",
                "171411.380000",
                "171412.540000",
                "171413.700000",
                "171414.860000",
                "171416.020000",
                "171417.180000",
                "171418.340000",
                "171419.500000",
                "171420.660000",
                "171421.820000",
                "171422.980000",
                "171424.140000",
                "171425.300000",
                "171426.460000",
                "171427.620000",
                "171428.780000",
                "171429.940000",
                "171431.100000",
                "171432.260000",
                "171433.420000",
                "171434.580000",
                "171435.740000",
                "171436.900000",
                "171438.060000",
                "171439.220000",
                "171440.380000",
                "171441.540000",
                "171442.700000",
                "171443.860000",
                "171445.020000",
                "171446.180000",
                "171447.340000",
                "171448.500000",
                "171449.660000",
                "171450.820000",
                "171451.980000",
                "171453.140000",
                "171454.300000",
                "171455.460000",
                "171456.620000",
                "171457.780000",
                "171458.940000",
                "171500.100000",
                "171501.260000",
                "171502.420000",
                "171503.580000",
                "171504.740000",
                "171505.900000",
                "171507.060000",
                "171508.220000",
                "171509.380000",
                "171510.540000",
                "171511.700000",
                "171512.860000",
                "171514.020000",
                "171515.180000",
                "171516.340000",
                "171517.500000",
                "171518.660000",
                "171519.820000",
                "171520.980000",
                "171522.140000",
                "171523.300000",
                "171524.460000",
                "171525.620000",
                "171526.780000",
                "171527.940000",
                "171529.100000",
                "171530.260000",
                "171531.420000",
                "171532.580000",
                "171533.740000",
                "171534.900000",
                "171536.060000",
                "171537.220000",
                "171538.380000",
                "171539.540000",
                "171540.700000",
                "171541.860000",
                "171543.020000",
                "171544.180000",
                "171545.340000",
                "171546.500000",
                "171547.660000",
                "171548.820000",
                "171549.980000",
                "171551.140000",
                "171552.300000",
                "171553.460000",
                "171554.620000",
                "171555.780000",
                "171556.940000",
                "171558.100000",
                "171559.260000",
                "171600.420000",
                "171601.580000",
                "171602.740000",
                "171603.900000",
                "171605.060000",
                "171606.220000",
                "171607.380000",
                "171608.540000",
                "171609.700000",
                "171610.860000",
                "171612.020000",
                "171613.180000",
                "171614.340000",
                "171615.500000",
                "171616.660000",
                "171617.820000",
                "171618.980000",
                "171620.140000",
                "171621.300000",
                "171622.460000",
                "171623.620000",
                "171624.780000",
                "171625.940000",
                "171627.100000",
                "171628.260000",
                "171629.420000",
                "171630.580000",
                "171631.740000",
                "171632.900000",
                "171634.060000",
                "171635.220000",
                "171636.380000",
                "171637.540000",
                "171638.700000",
                "171639.860000",
                "171641.020000",
                "171642.180000",
                "171643.340000",
                "171644.500000",
                "171645.660000",
                "171646.820000",
                "171647.980000",
                "171649.140000",
                "171650.300000",
                "171651.460000",
                "171652.620000",
                "171653.780000",
                "171654.940000",
                "171656.100000",
                "171657.260000",
                "171658.420000",
                "171659.580000",
                "171700.740000",
                "171701.900000",
                "171703.060000",
                "171704.220000",
                "171705.380000",
                "171706.540000",
                "171707.700000",
                "171708.860000",
                "171710.020000",
                "171711.180000",
                "171712.340000",
                "171713.500000",
                "171714.660000",
                "171715.820000",
                "171716.980000",
                "171718.140000",
                "171719.300000",
                "171720.460000",
                "171721.620000",
                "171722.780000",
                "171723.940000",
                "171725.100000",
                "171726.260000",
                "171727.420000",
                "171728.580000",
                "171729.740000",
