{"AcquisitionMatrixPE": 96, "AcquisitionNumber": 1, "AcquisitionTime": "07:41:40.565000", "BaseResolution": 96, "BodyPartExamined": "BRAIN", "ConsistencyInfo": "N4_VD11D_LATEST_20110129", "ConversionSoftware": "dcm2niix", "ConversionSoftwareVersion": "v1.0.20210317", "DeviceSerialNumber": "45239", "DwellTime": 9.2e-06, "EchoNumber": 2, "EchoTime": 0.00738, "EchoTime1": 0.00492, "EchoTime2": 0.00738, "FlipAngle": 50, "ImageOrientationPatientDICOM": [0.999982, -0.00521416, 0.00284287, 0.0059388, 0.877967, -0.478683], "ImageType": ["ORIGINAL", "PRIMARY", "P", "ND", "PHASE"], "ImagingFrequency": 123.193, "InPlanePhaseEncodingDirectionDICOM": "COL", "InstitutionAddress": "E 24th St. 100,Austin,Southmiddle,US,78712", "InstitutionName": "Univ of Texas at Austin", "InstitutionalDepartmentName": "IRC", "MRAcquisitionType": "2D", "MagneticFieldStrength": 3, "Manufacturer": "Siemens", "ManufacturersModelName": "Skyra", "Modality": "MR", "PartialFourier": 1, "PatientPosition": "HFS", "PercentPhaseFOV": 100, "PercentSampling": 100, "PhaseEncodingDirection": "j-", "PhaseEncodingSteps": 96, "PhaseResolution": 1, "PixelBandwidth": 565, "ProcedureStepDescription": "Poldrack2^self-scanning", "ProtocolName": "gre_field_mapping", "PulseSequenceDetails": "%SiemensSeq%\\gre_field_mapping", "ReceiveCoilActiveElements": "HEA;HEP", "ReceiveCoilName": "Head_32", "ReconMatrixPE": 96, "RepetitionTime": 0.731, "SAR": 0.108456, "ScanningSequence": "GR", "SequenceName": "*fm2d2r", "SequenceVariant": "SP", "SeriesDescription": "gre_field_mapping", "SeriesNumber": 9, "ShimSetting": [-2787, 8010, -15463, 226, -236, 42, 281, -114], "SliceThickness": 2, "SliceTiming": [0.35938, 0, 0.375, 0.00781, 0.38281, 0.01562, 0.39062, 0.03125, 0.40625, 0.03906, 0.41406, 0.04688, 0.42969, 0.0625, 0.4375, 0.07031, 0.44531, 0.07812, 0.46094, 0.09375, 0.46875, 0.10156, 0.47656, 0.11719, 0.49219, 0.125, 0.5, 0.14062, 0.51562, 0.14844, 0.52344, 0.15625, 0.53125, 0.17188, 0.54688, 0.17969, 0.55469, 0.1875, 0.57031, 0.20312, 0.57812, 0.21094, 0.58594, 0.21875, 0.60156, 0.23438, 0.60938, 0.24219, 0.61719, 0.25781, 0.63281, 0.26562, 0.64062, 0.27344, 0.64844, 0.28906, 0.66406, 0.29688, 0.67188, 0.3125, 0.6875, 0.32031, 0.69531, 0.32812, 0.70312, 0.33594, 0.71875, 0.35156], "SoftwareVersions": "syngo MR D11", "SpacingBetweenSlices": 2.4, "StationName": "AWP45239", "TxRefAmp": 331.931, "dcmmeta_affine": [[-2.3957910537719727, 0.014228381216526031, 0.0, 116.04586791992188], [0.012492259033024311, 2.103463649749756, -1.1488571166992188, -68.56497192382812], [0.006811043247580528, 1.1468456983566284, 2.1071624755859375, -97.56912994384766], [0.0, 0.0, 0.0, 1.0]], "dcmmeta_reorient_transform": [[0.0, -1.0, 0.0, 95.0], [1.0, 0.0, 0.0, 0.0], [0.0, 0.0, -1.0, 67.0], [0.0, 0.0, 0.0, 1.0]], "dcmmeta_shape": [96, 96, 68], "dcmmeta_slice_dim": 2, "dcmmeta_version": 0.6, "global": {"const": {"AcquisitionMatrix": [96, 0, 0, 96], "AcquisitionNumber": 1, "AngioFlag": "N", "BitsAllocated": 16, "BitsStored": 12, "BodyPartExamined": "BRAIN", "Columns": 96, "EchoNumbers": 2, "EchoTime": 7.38, "EchoTrainLength": 0, "FlipAngle": 50.0, "HighBit": 11, "ImageOrientationPatient": [0.99998236515485, -0.0052141603522, 0.0028428702283, 0.00593880285189, 0.87796749069826, -0.4786834192843], "ImageType": ["ORIGINAL", "PRIMARY", "P", "ND"], "ImagedNucleus": "1H", "ImagingFrequency": 123.193397, "InPlanePhaseEncodingDirection": "COL", "MRAcquisitionType": "2D", "MagneticFieldStrength": 3.0, "Manufacturer": "SIEMENS", "ManufacturerModelName": "Skyra", "Modality": "MR", "NumberOfAverages": 1.0, "NumberOfPhaseEncodingSteps": 96, "PercentPhaseFieldOfView": 100.0, "PercentSampling": 100.0, "PerformedProcedureStepStartTime": "070606.500000", "PhotometricInterpretation": "MONOCHROME2", "PixelBandwidth": 565.0, "PixelRepresentation": 0, "PixelSpacing": [2.3958332538605, 2.3958332538605], "ProtocolName": "gre_field_mapping", "RepetitionTime": 731.0, "RescaleIntercept": -4096.0, "RescaleSlope": 2.0, "RescaleType": "US", "Rows": 96, "SAR": 0.10845632488134, "SamplesPerPixel": 1, "ScanningSequence": "GR", "SequenceName": "*fm2d2r", "SequenceVariant": "SP", "SeriesDescription": "gre_field_mapping", "SeriesNumber": 9, "SeriesTime": "074401.312000", "SliceThickness": 2.0, "SoftwareVersions": "syngo MR D11", "SpacingBetweenSlices": 2.4, "SpecificCharacterSet": "ISO_IR 100", "StudyID": "1", "StudyTime": "070606.453000", "TransmitCoilName": "Body", "VariableFlipAngleFlag": "N", "WindowCenterWidthExplanation": "Algo1", "dBdt": 0.0}, "slices": {"AcquisitionTime": ["074140.565000", "074140.200000", "074140.575000", "074140.210000", "074140.587500", "074140.220000", "074140.597500", "074140.232500", "074140.607500", "074140.242500", "074140.620000", "074140.252500", "074140.630000", "074140.265000", "074140.640000", "074140.275000", "074140.650000", "074140.285000", "074140.662500", "074140.297500", "074140.672500", "074140.307500", "074140.682500", "074140.317500", "074140.695000", "074140.327500", "074140.705000", "074140.340000", "074140.715000", "074140.350000", "074140.727500", "074140.360000", "074140.737500", "074140.372500", "074140.747500", "074140.382500", "074140.757500", "074140.392500", "074140.770000", "074140.405000", "074140.780000", "074140.415000", "074140.790000", "074140.425000", "074140.802500", "074140.435000", "074140.812500", "074140.447500", "074140.822500", "074140.457500", "074140.835000", "074140.467500", "074140.845000", "074140.480000", "074140.855000", "074140.490000", "074140.865000", "074140.500000", "074140.877500", "074140.512500", "074140.887500", "074140.522500", "074140.897500", "074140.532500", "074140.910000", "074140.542500", "074140.920000", "074140.555000"], "ContentTime": ["074401.375000", "074401.312000", "074401.375000", "074401.312000", "074401.375000", "074401.312000", "074401.406000", "074401.312000", "074401.406000", "074401.312000", "074401.421000", "074401.312000", "074401.421000", "074401.328000", "074401.421000", "074401.328000", "074401.437000", "074401.328000", "074401.437000", "074401.328000", "074401.437000", "074401.328000", "074401.437000", "074401.328000", "074401.453000", "074401.328000", "074401.609000", "074401.328000", "074401.609000", "074401.328000", "074401.609000", "074401.343000", "074401.625000", "074401.343000", "074401.625000", "074401.343000", "074401.625000", "074401.343000", "074401.625000", "074401.343000", "074401.625000", "074401.343000", "074401.625000", "074401.343000", "074401.625000", "074401.343000", "074401.625000", "074401.359000", "074401.640000", "074401.359000", "074401.640000", "074401.359000", "074401.640000", "074401.359000", "074401.656000", "074401.359000", "074401.656000", "074401.359000", "074401.656000", "074401.359000", "074401.671000", "074401.375000", "074401.671000", "074401.375000", "074401.671000", "074401.375000", "074401.671000", "074401.375000"], "CsaImage.GSWDDataType": ["predicted", "predicted", "predicted", "predicted", "predicted", "predicted", "measured", "predicted", "measured", "predicted", "measured", "predicted", "measured", "predicted", "measured", "predicted", "measured", "predicted", "measured", "predicted", "measured", "predicted", "measured", "predicted", "measured", "predicted", "measured", "predicted", "measured", "predicted", "measured", "predicted", "measured", "predicted", "measured", "predicted", "measured", "predicted", "measured", "predicted", "measured", "predicted", "measured", "predicted", "measured", "predicted", "measured", "predicted", "measured", "predicted", "measured", "predicted", "measured", "predicted", "measured", "predicted", "measured", "predicted", "measured", "predicted", "measured", "predicted", "measured", "predicted", "measured", "predicted", "measured", "predicted"], "CsaImage.ICE_Dims": ["X_2_1_1_1_1_1_35_1_1_1_1_177", "X_2_1_1_1_1_1_1_1_1_2_1_177", "X_2_1_1_1_1_1_36_1_1_3_1_177", "X_2_1_1_1_1_1_2_1_1_4_1_177", "X_2_1_1_1_1_1_37_1_1_5_1_177", "X_2_1_1_1_1_1_3_1_1_6_1_177", "X_2_1_1_1_1_1_38_1_1_7_1_177", "X_2_1_1_1_1_1_4_1_1_8_1_177", "X_2_1_1_1_1_1_39_1_1_9_1_177", "X_2_1_1_1_1_1_5_1_1_10_1_177", "X_2_1_1_1_1_1_40_1_1_11_1_177", "X_2_1_1_1_1_1_6_1_1_12_1_177", "X_2_1_1_1_1_1_41_1_1_13_1_177", "X_2_1_1_1_1_1_7_1_1_14_1_177", "X_2_1_1_1_1_1_42_1_1_15_1_177", "X_2_1_1_1_1_1_8_1_1_16_1_177", "X_2_1_1_1_1_1_43_1_1_17_1_177", "X_2_1_1_1_1_1_9_1_1_18_1_177", "X_2_1_1_1_1_1_44_1_1_19_1_177", "X_2_1_1_1_1_1_10_1_1_20_1_177", "X_2_1_1_1_1_1_45_1_1_21_1_177", "X_2_1_1_1_1_1_11_1_1_22_1_177", "X_2_1_1_1_1_1_46_1_1_23_1_177", "X_2_1_1_1_1_1_12_1_1_24_1_177", "X_2_1_1_1_1_1_47_1_1_25_1_177", "X_2_1_1_1_1_1_13_1_1_26_1_177", "X_2_1_1_1_1_1_48_1_1_27_1_177", "X_2_1_1_1_1_1_14_1_1_28_1_177", "X_2_1_1_1_1_1_49_1_1_29_1_177", "X_2_1_1_1_1_1_15_1_1_30_1_177", "X_2_1_1_1_1_1_50_1_1_31_1_177", "X_2_1_1_1_1_1_16_1_1_32_1_177", "X_2_1_1_1_1_1_51_1_1_33_1_177", "X_2_1_1_1_1_1_17_1_1_34_1_177", "X_2_1_1_1_1_1_52_1_1_35_1_177", "X_2_1_1_1_1_1_18_1_1_36_1_177", "X_2_1_1_1_1_1_53_1_1_37_1_177", "X_2_1_1_1_1_1_19_1_1_38_1_177", "X_2_1_1_1_1_1_54_1_1_39_1_177", "X_2_1_1_1_1_1_20_1_1_40_1_177", "X_2_1_1_1_1_1_55_1_1_41_1_177", "X_2_1_1_1_1_1_21_1_1_42_1_177", "X_2_1_1_1_1_1_56_1_1_43_1_177", "X_2_1_1_1_1_1_22_1_1_44_1_177", "X_2_1_1_1_1_1_57_1_1_45_1_177", "X_2_1_1_1_1_1_23_1_1_46_1_177", "X_2_1_1_1_1_1_58_1_1_47_1_177", "X_2_1_1_1_1_1_24_1_1_48_1_177", "X_2_1_1_1_1_1_59_1_1_49_1_177", "X_2_1_1_1_1_1_25_1_1_50_1_177", "X_2_1_1_1_1_1_60_1_1_51_1_177", "X_2_1_1_1_1_1_26_1_1_52_1_177", "X_2_1_1_1_1_1_61_1_1_53_1_177", "X_2_1_1_1_1_1_27_1_1_54_1_177", "X_2_1_1_1_1_1_62_1_1_55_1_177", "X_2_1_1_1_1_1_28_1_1_56_1_177", "X_2_1_1_1_1_1_63_1_1_57_1_177", "X_2_1_1_1_1_1_29_1_1_58_1_177", "X_2_1_1_1_1_1_64_1_1_59_1_177", "X_2_1_1_1_1_1_30_1_1_60_1_177", "X_2_1_1_1_1_1_65_1_1_61_1_177", "X_2_1_1_1_1_1_31_1_1_62_1_177", "X_2_1_1_1_1_1_66_1_1_63_1_177", "X_2_1_1_1_1_1_32_1_1_64_1_177", "X_2_1_1_1_1_1_67_1_1_65_1_177", "X_2_1_1_1_1_1_33_1_1_66_1_177", "X_2_1_1_1_1_1_68_1_1_67_1_177", "X_2_1_1_1_1_1_34_1_1_68_1_177"], "CsaImage.ProtocolSliceNumber": [0, 1, 2, 3, 4, 5, 6, 7, 8, 9, 10, 11, 12, 13, 14, 15, 16, 17, 18, 19, 20, 21, 22, 23, 24, 25, 26, 27, 28, 29, 30, 31, 32, 33, 34, 35, 36, 37, 38, 39, 40, 41, 42, 43, 44, 45, 46, 47, 48, 49, 50, 51, 52, 53, 54, 55, 56, 57, 58, 59, 60, 61, 62, 63, 64, 65, 66, 67], "CsaImage.RFSWDDataType": ["predicted", "predicted", "predicted", "predicted", "measured", "predicted", "measured", "predicted", "measured", "predicted", "measured", "predicted", "measured", "predicted", "measured", "predicted", "measured", "predicted", "measured", "predicted", "measured", "predicted", "measured", "predicted", "measured", "predicted", "measured", "predicted", "measured", "predicted", "measured", "predicted", "measured", "predicted", "measured", "predicted", "measured", "predicted", "measured", "predicted", "measured", "predicted", "measured", "predicted", "measured", "predicted", "measured", "predicted", "measured", "predicted", "measured", "predicted", "measured", "predicted", "measured", "predicted", "measured", "predicted", "measured", "predicted", "measured", "predicted", "measured", "predicted", "measured", "predicted", "measured", "predicted"], "CsaImage.SlicePosition_PCS": [[-117.39756047, -131.26430422, 11.38142848], [-117.39756047, -130.1154452, 13.48859095], [-117.39756047, -128.96658427, 15.59574961], [-117.39756047, -127.81772333, 17.70290827], [-117.39756047, -126.6688624, 19.81006694], [-117.39756047, -125.52000338, 21.9172256], [-117.39756047, -124.37114245, 24.02438426], [-117.39756047, -123.22228152, 26.13154483], [-117.39756047, -122.07342058, 28.23870349], [-117.39756047, -120.92456156, 30.34586215], [-117.39756047, -119.77570063, 32.45302081], [-117.39756047, -118.6268397, 34.56018138], [-117.39756047, -117.47797877, 36.66734004], [-117.39756047, -116.32911879, 38.7744987], [-117.39756047, -115.18025881, 40.88165831], [-117.39756047, -114.03139788, 42.98881697], [-117.39756047, -112.8825379, 45.09597659], [-117.39756047, -111.73367697, 47.20313573], [-117.39756047, -110.58481699, 49.31029486], [-117.39756047, -109.43595606, 51.41745376], [-117.39756047, -108.28709608, 53.5246129], [-117.39756047, -107.13823563, 55.63177204], [-117.39756047, -105.98937517, 57.73893118], [-117.39756047, -104.84051424, 59.84609055], [-117.39756047, -103.69165403, 61.95324969], [-117.39756047, -102.54279357, 64.06040835], [-117.39756047, -101.39393312, 66.16756797], [-117.39756047, -100.24507264, 68.27472663], [-117.39756047, -99.09621221, 70.38188624], [-117.39756047, -97.94735175, 72.4890449], [-117.39756047, -96.7984913, 74.59620356], [-117.39756047, -95.64963061, 76.70336413], [-117.39756047, -94.50077015, 78.81052279], [-117.39756047, -93.3519097, 80.91768145], [-117.39756047, -92.20304972, 83.02484011], [-117.39756047, -91.05418879, 85.13200068], [-117.39756047, -89.90532881, 87.23915934], [-117.39756047, -88.75646788, 89.346318], [-117.39756047, -87.6076079, 91.45347666], [-117.39756047, -86.45874697, 93.56063533], [-117.39756047, -85.30988699, 95.66779399], [-117.39756047, -84.16102701, 97.77495646], [-117.39756047, -83.01216608, 99.88211512], [-117.39756047, -81.86330515, 101.98927378], [-117.39756047, -80.71444422, 104.09643244], [-117.39756047, -79.5655852, 106.20359111], [-117.39756047, -78.41672426, 108.31074977], [-117.39756047, -77.26786333, 110.41790843], [-117.39756047, -76.1190024, 112.52506709], [-117.39756047, -74.97014338, 114.63222956], [-117.39756047, -73.82128245, 116.73938822], [-117.39756047, -72.67242152, 118.84654689], [-117.39756047, -71.52356058, 120.95370173], [-117.39756047, -70.37470156, 123.06086421], [-117.39756047, -69.22584063, 125.16802668], [-117.39756047, -68.0769797, 127.27518153], [-117.39756047, -66.92811877, 129.382344], [-117.39756047, -65.77925783, 131.48949885], [-117.39756047, -64.6303969, 133.59666133], [-117.39756047, -63.48153979, 135.70381617], [-117.39756047, -62.33267885, 137.81097865], [-117.39756047, -61.18381792, 139.91814112], [-117.39756047, -60.03495699, 142.02529597], [-117.39756047, -58.88609606, 144.13245845], [-117.39756047, -57.73723513, 146.23961329], [-117.39756047, -56.5883742, 148.34677577], [-117.39756047, -55.43951327, 150.45393061], [-117.39756047, -54.29065615, 152.56109309]], "CsaImage.TimeAfterStart": [1.0975, 0.7325, 1.11, 0.745, 1.12, 0.755, 1.13, 0.765, 1.1425, 0.775, 1.1525, 0.7875, 1.1625, 0.7975, 1.175, 0.8075, 1.185, 0.82, 1.195, 0.83, 1.205, 0.84, 1.2175, 0.8525, 1.2275, 0.8625, 1.2375, 0.8725, 1.25, 0.8825, 1.26, 0.895, 1.27, 0.905, 1.2825, 0.915, 1.2925, 0.9275, 1.3025, 0.9375, 1.3125, 0.9475, 1.325, 0.96, 1.335, 0.97, 1.345, 0.98, 1.3575, 0.99, 1.3675, 1.0025, 1.3775, 1.0125, 1.39, 1.0225, 1.4, 1.035, 1.41, 1.045, 1.42, 1.055, 1.4325, 1.0675, 1.4425, 1.0775, 1.4525, 1.0875], "ImagePositionPatient": [[-117.39756046548, -131.26430422105, 11.381428477128], [-117.39756046548, -130.115445197, 13.488590952714], [-117.39756046548, -128.9665842656, 15.595749613603], [-117.39756046548, -127.81772333421, 17.702908274492], [-117.39756046548, -126.66886240281, 19.81006693538], [-117.39756046548, -125.52000337876, 21.917225596269], [-117.39756046548, -124.37114244737, 24.024384257158], [-117.39756046548, -123.22228151597, 26.131544825395], [-117.39756046548, -122.07342058457, 28.238703486284], [-117.39756046548, -120.92456156053, 30.345862147172], [-117.39756046548, -119.77570062913, 32.453020808061], [-117.39756046548, -118.62683969773, 34.560181376298], [-117.39756046548, -117.47797876634, 36.667340037187], [-117.39756046548, -116.32911878861, 38.774498698076], [-117.39756046548, -115.18025881089, 40.881658312639], [-117.39756046548, -114.0313978795, 42.988816973527], [-117.39756046548, -112.88253790177, 45.09597658809], [-117.39756046548, -111.73367697038, 47.203135725816], [-117.39756046548, -110.58481699266, 49.310294863542], [-117.39756046548, -109.43595606126, 51.417453762849], [-117.39756046548, -108.28709608354, 53.524612900575], [-117.39756046548, -107.13823562898, 55.631772038301], [-117.39756046548, -105.98937517442, 57.738931176027], [-117.39756046548, -104.84051424302, 59.846090552171], [-117.39756046548, -103.69165402688, 61.953249689897], [-117.39756046548, -102.54279357232, 64.060408350786], [-117.39756046548, -101.39393311776, 66.167567965349], [-117.39756046548, -100.24507264085, 68.274726626237], [-117.39756046548, -99.096212208643, 70.3818862408], [-117.39756046548, -97.947351754084, 72.489044901689], [-117.39756046548, -96.798491299525, 74.596203562578], [-117.39756046548, -95.649630606547, 76.703364130815], [-117.39756046548, -94.500770151988, 78.810522791704], [-117.39756046548, -93.351909697428, 80.917681452592], [-117.39756046548, -92.203049719706, 83.024840113481], [-117.39756046548, -91.05418878831, 85.132000681718], [-117.39756046548, -89.905328810587, 87.239159342607], [-117.39756046548, -88.756467879191, 89.346318003496], [-117.39756046548, -87.607607901469, 91.453476664384], [-117.39756046548, -86.458746970072, 93.560635325273], [-117.39756046548, -85.30988699235, 95.667793986162], [-117.39756046548, -84.161027014628, 97.774956461747], [-117.39756046548, -83.012166083231, 99.882115122636], [-117.39756046548, -81.863305151835, 101.98927378352], [-117.39756046548, -80.714444220438, 104.09643244441], [-117.39756046548, -79.565585196391, 106.2035911053], [-117.39756046548, -78.416724264994, 108.31074976619], [-117.39756046548, -77.267863333598, 110.41790842708], [-117.39756046548, -76.119002402201, 112.52506708797], [-117.39756046548, -74.970143378153, 114.63222956355], [-117.39756046548, -73.821282446757, 116.73938822444], [-117.39756046548, -72.67242151536, 118.84654688533], [-117.39756046548, -71.523560583964, 120.95370173152], [-117.39756046548, -70.374701559916, 123.06086420711], [-117.39756046548, -69.225840628519, 125.16802668269], [-117.39756046548, -68.076979697123, 127.27518152889], [-117.39756046548, -66.928118765727, 129.38234400447], [-117.39756046548, -65.77925783433, 131.48949885066], [-117.39756046548, -64.630396902934, 133.59666132625], [-117.39756046548, -63.481539786234, 135.70381617244], [-117.39756046548, -62.332678854838, 137.81097864803], [-117.39756046548, -61.183817923441, 139.91814112361], [-117.39756046548, -60.034956992045, 142.0252959698], [-117.39756046548, -58.886096060648, 144.13245844539], [-117.39756046548, -57.737235129252, 146.23961329158], [-117.39756046548, -56.588374197855, 148.34677576717], [-117.39756046548, -55.439513266459, 150.45393061336], [-117.39756046548, -54.29065614976, 152.56109308894]], "InstanceCreationTime": ["074401.375000", "074401.312000", "074401.375000", "074401.312000", "074401.375000", "074401.312000", "074401.406000", "074401.312000", "074401.406000", "074401.312000", "074401.421000", "074401.312000", "074401.421000", "074401.328000", "074401.421000", "074401.328000", "074401.437000", "074401.328000", "074401.437000", "074401.328000", "074401.437000", "074401.328000", "074401.437000", "074401.328000", "074401.453000", "074401.328000", "074401.609000", "074401.328000", "074401.609000", "074401.328000", "074401.609000", "074401.343000", "074401.625000", "074401.343000", "074401.625000", "074401.343000", "074401.625000", "074401.343000", "074401.625000", "074401.343000", "074401.625000", "074401.343000", "074401.625000", "074401.343000", "074401.625000", "074401.343000", "074401.625000", "074401.359000", "074401.640000", "074401.359000", "074401.640000", "074401.359000", "074401.640000", "074401.359000", "074401.656000", "074401.359000", "074401.656000", "074401.359000", "074401.656000", "074401.359000", "074401.671000", "074401.375000", "074401.671000", "074401.375000", "074401.671000", "074401.375000", "074401.671000", "074401.375000"], "InstanceNumber": [1, 2, 3, 4, 5, 6, 7, 8, 9, 10, 11, 12, 13, 14, 15, 16, 17, 18, 19, 20, 21, 22, 23, 24, 25, 26, 27, 28, 29, 30, 31, 32, 33, 34, 35, 36, 37, 38, 39, 40, 41, 42, 43, 44, 45, 46, 47, 48, 49, 50, 51, 52, 53, 54, 55, 56, 57, 58, 59, 60, 61, 62, 63, 64, 65, 66, 67, 68], "LargestImagePixelValue": [4094, 4094, 4094, 4093, 4093, 4094, 4094, 4094, 4094, 4094, 4094, 4094, 4093, 4094, 4094, 4093, 4094, 4094, 4093, 4090, 4094, 4094, 4094, 4093, 4094, 4091, 4094, 4093, 4093, 4094, 4091, 4091, 4090, 4094, 4093, 4094, 4092, 4091, 4091, 4090, 4089, 4094, 4093, 4094, 4094, 4088, 4093, 4091, 4093, 4094, 4094, 4094, 4093, 4094, 4094, 4094, 4094, 4094, 4094, 4094, 4094, 4094, 4094, 4094, 4094, 4093, 4094, 4092], "SliceLocation": [-52.842451829774, -50.442449589015, -48.042449784464, -45.642449979913, -43.242450175361, -40.842451283842, -38.442451479291, -36.042450000119, -33.642450195568, -31.242451304049, -28.842451499497, -26.442450020326, -24.042450215775, -21.64245086774, -19.242450682395, -16.842450877843, -14.442450692498, -12.042450469292, -9.6424507026014, -7.2424506887225, -4.8424509220323, -2.442450927084, -0.0424509321358, 2.357549500398, 4.7575493812173, 7.1575489575106, 9.5575493711138, 11.957548958107, 14.35754936101, 16.757548937304, 19.157548513597, 21.557549878639, 23.957549454933, 26.357549031226, 28.757548379261, 31.157549858432, 33.557549206468, 35.957549011019, 38.357548359054, 40.757548163606, 43.157547511641, 45.557550208916, 47.957550013467, 50.357549818018, 52.75754962257, 55.157548514089, 57.55754831864, 59.957548123192, 62.357547927743, 64.757550168502, 67.157549973053, 69.557549777605, 71.957546232917, 74.357548473675, 76.757551627466, 79.157548082778, 81.557551236569, 83.957547691881, 86.357550845672, 88.757545474919, 91.15754862871, 93.557551782501, 95.957548237813, 98.357551391604, 100.75754784692, 103.15755100071, 105.55754745602, 107.95754878374], "SmallestImagePixelValue": [0, 1, 0, 0, 0, 1, 0, 0, 4, 0, 1, 0, 0, 0, 2, 3, 2, 4, 0, 0, 0, 0, 1, 4, 4, 0, 1, 0, 0, 6, 3, 0, 1, 0, 7, 3, 22, 0, 10, 1, 1, 8, 2, 3, 5, 0, 1, 3, 2, 1, 1, 0, 0, 2, 0, 0, 0, 0, 0, 0, 0, 0, 0, 0, 1, 0, 0, 0], "WindowCenter": [-396.0, -238.0, -220.0, -196.0, -270.0, -228.0, -278.0, -272.0, -414.0, -598.0, -638.0, -580.0, -520.0, -532.0, -558.0, -588.0, -522.0, -516.0, -446.0, -450.0, -454.0, -422.0, -416.0, -388.0, -360.0, -368.0, -354.0, -344.0, -334.0, -316.0, -302.0, -282.0, -244.0, -270.0, -282.0, -298.0, -248.0, -226.0, -162.0, -140.0, -124.0, -130.0, -146.0, -142.0, -156.0, -186.0, -186.0, -170.0, -164.0, -192.0, -190.0, -204.0, -216.0, -232.0, -224.0, -244.0, -232.0, -242.0, -220.0, -278.0, -286.0, -312.0, -322.0, -358.0, -386.0, -434.0, -486.0, -442.0], "WindowWidth": [5088.0, 5906.0, 6076.0, 6142.0, 6172.0, 6234.0, 6248.0, 6094.0, 5628.0, 4906.0, 4932.0, 4900.0, 4888.0, 4866.0, 4838.0, 4842.0, 4738.0, 4718.0, 4660.0, 4608.0, 4562.0, 4544.0, 4440.0, 4416.0, 4370.0, 4386.0, 4290.0, 4308.0, 4190.0, 4146.0, 4040.0, 4008.0, 4002.0, 3984.0, 3960.0, 4002.0, 3986.0, 4054.0, 4060.0, 4092.0, 4128.0, 4172.0, 4212.0, 4204.0, 4220.0, 4258.0, 4214.0, 4232.0, 4220.0, 4224.0, 4220.0, 4252.0, 4274.0, 4308.0, 4316.0, 4308.0, 4312.0, 4342.0, 4376.0, 4420.0, 4456.0, 4490.0, 4594.0, 4632.0, 4730.0, 4764.0, 4806.0, 4870.0]}}}