{"AcquisitionMatrixPE": 96, "AcquisitionNumber": 1, "AcquisitionTime": "08:08:55.225000", "BandwidthPerPixelPhaseEncode": 33.602, "BaseResolution": 96, "BodyPartExamined": "BRAIN", "ConsistencyInfo": "N4_VD13A_LATEST_20120616", "ConversionSoftware": "dcm2niix", "ConversionSoftwareVersion": "v1.0.20210317", "DerivedVendorReportedEchoSpacing": 0.000620003, "DeviceSerialNumber": "45239", "DwellTime": 2.6e-06, "EchoTime": 0.03, "EchoTrainLength": 47, "EffectiveEchoSpacing": 0.000310001, "FlipAngle": 63, "ImageComments": "Unaliased MB4/PE3", "ImageOrientationPatientDICOM": [0.999837, -0.00504022, -0.0173604, -0.00471166, 0.854492, -0.519443], "ImageType": ["ORIGINAL", "PRIMARY", "M", "ND", "NORM", "MOSAIC"], "ImagingFrequency": 123.191, "InPlanePhaseEncodingDirectionDICOM": "COL", "InstitutionAddress": "E 24th St. 100,Austin,Southmiddle,US,78712", "InstitutionName": "The Univ. of Texas at Austin IRC", "InstitutionalDepartmentName": "IRC", "MRAcquisitionType": "2D", "MagneticFieldStrength": 3, "Manufacturer": "Siemens", "ManufacturersModelName": "Skyra", "Modality": "MR", "MultibandAccelerationFactor": 4, "ParallelReductionFactorInPlane": 2, "PartialFourier": 1, "PatientPosition": "HFS", "PercentPhaseFOV": 100, "PercentSampling": 100, "PhaseEncodingDirection": "j-", "PhaseEncodingSteps": 95, "PhaseResolution": 1, "PixelBandwidth": 2005, "ProcedureStepDescription": "Poldrack2^self-scanning", "ProtocolName": "loc_hard_easy", "PulseSequenceDetails": "%CustomerSeq%\\cmrr_mbep2d_bold", "ReceiveCoilActiveElements": "HEA;HEP", "ReceiveCoilName": "Head_32", "ReconMatrixPE": 96, "RefLinesPE": 48, "RepetitionTime": 1.16, "SAR": 0.120808, "ScanOptions": "FS", "ScanningSequence": "EP", "SequenceName": "epfid2d1_96", "SequenceVariant": "SK", "SeriesDescription": "loc_hard_easy", "SeriesNumber": 14, "ShimSetting": [-2960, 8223, -15591, -619, 169, -1247, 49, 205], "SliceThickness": 2, "SliceTiming": [0, 0.4975, 0.995, 0.355, 0.8525, 0.2125, 0.71, 0.07, 0.5675, 1.0675, 0.425, 0.925, 0.2825, 0.7825, 0.14, 0.64, 0, 0.4975, 0.995, 0.355, 0.8525, 0.2125, 0.71, 0.07, 0.5675, 1.0675, 0.425, 0.925, 0.2825, 0.7825, 0.14, 0.64, 0, 0.4975, 0.995, 0.355, 0.8525, 0.2125, 0.71, 0.07, 0.5675, 1.0675, 0.425, 0.925, 0.2825, 0.7825, 0.14, 0.64, 0, 0.4975, 0.995, 0.355, 0.8525, 0.2125, 0.71, 0.07, 0.5675, 1.0675, 0.425, 0.925, 0.2825, 0.7825, 0.14, 0.64], "SoftwareVersions": "syngo MR D13", "SpacingBetweenSlices": 2.4, "StationName": "AWP45239", "TaskName": "Spatial working memory task", "TotalReadoutTime": 0.0294501, "TxRefAmp": 338.277, "WipMemBlock": "ec562f6b-8cd9-4ae3-a550-60b4936bd513||Sequence: vd13a/R010 r/fd129fc; Dec 13 2013 16:14:27 by eja", "dcmmeta_affine": [[-2.395441770553589, -0.011288358829915524, -0.04188577085733414, 117.6285400390625], [0.012075532227754593, 2.047220468521118, -1.2466559410095215, -76.79409790039062], [-0.0415925458073616, 1.2444989681243896, 2.050388813018799, -79.05147552490234], [0.0, 0.0, 0.0, 1.0]], "dcmmeta_reorient_transform": [[0.0, -1.0, 0.0, 95.0], [1.0, 0.0, 0.0, 0.0], [0.0, 0.0, 1.0, 0.0], [0.0, 0.0, 0.0, 1.0]], "dcmmeta_shape": [96, 96, 64, 387], "dcmmeta_slice_dim": 2, "dcmmeta_version": 0.6, "global": {"const": {"AcquisitionMatrix": [96, 0, 0, 96], "AngioFlag": "N", "BitsAllocated": 16, "BitsStored": 16, "BodyPartExamined": "BRAIN", "Columns": 768, "DeidentificationMethodCodeSequence": [{"CodeMeaning": "XNAT Edit Script", "CodeValue": "93", "CodingSchemeDesignator": "XNAT", "CodingSchemeVersion": "0.1"}], "EchoNumbers": 1, "EchoTime": 30.0, "EchoTrainLength": 47, "FlipAngle": 63.0, "HighBit": 15, "ImageOrientationPatient": [0.99983659354076, -0.0050402223432, -0.0173603679554, -0.0047116628912, 0.85449206468801, -0.5194430783233], "ImagePositionPatient": [-917.63168491778, -801.5005632906, 471.30269286024], "ImageType": ["ORIGINAL", "PRIMARY", "M", "ND", "NORM", "MOSAIC"], "ImagedNucleus": "1H", "ImagingFrequency": 123.19139, "InPlanePhaseEncodingDirection": "COL", "MRAcquisitionType": "2D", "MagneticFieldStrength": 3.0, "Manufacturer": "SIEMENS", "ManufacturerModelName": "Skyra", "Modality": "MR", "NumberOfAverages": 1.0, "NumberOfPhaseEncodingSteps": 95, "PercentPhaseFieldOfView": 100.0, "PercentSampling": 100.0, "PerformedProcedureStepStartTime": "073443.962000", "PhotometricInterpretation": "MONOCHROME2", "PixelBandwidth": 2005.0, "PixelRepresentation": 0, "PixelSpacing": [2.3958332538605, 2.3958332538605], "ProtocolName": "loc_hard_easy", "RepetitionTime": 1160.0, "Rows": 768, "SAR": 0.12080814818608, "SamplesPerPixel": 1, "ScanOptions": "FS", "ScanningSequence": "EP", "SequenceName": "epfid2d1_96", "SequenceVariant": "SK", "SeriesDescription": "loc_hard_easy", "SeriesNumber": 14, "SeriesTime": "080946.139000", "SliceLocation": -29.698917045182, "SliceThickness": 2.0, "SmallestImagePixelValue": 0, "SoftwareVersions": "syngo MR D13", "SpacingBetweenSlices": 2.3999999636557, "SpecificCharacterSet": "ISO_IR 100", "StudyID": "1", "StudyTime": "073443.858000", "TransmitCoilName": "Body", "VariableFlipAngleFlag": "N", "WindowCenterWidthExplanation": "Algo1", "dBdt": 0.0}, "slices": {}}, "time": {"samples": {"AcquisitionNumber": [1, 2, 3, 4, 5, 6, 7, 8, 9, 10, 11, 12, 13, 14, 15, 16, 17, 18, 19, 20, 21, 22, 23, 24, 25, 26, 27, 28, 29, 30, 31, 32, 33, 34, 35, 36, 37, 38, 39, 40, 41, 42, 43, 44, 45, 46, 47, 48, 49, 50, 51, 52, 53, 54, 55, 56, 57, 58, 59, 60, 61, 62, 63, 64, 65, 66, 67, 68, 69, 70, 71, 72, 73, 74, 75, 76, 77, 78, 79, 80, 81, 82, 83, 84, 85, 86, 87, 88, 89, 90, 91, 92, 93, 94, 95, 96, 97, 98, 99, 100, 101, 102, 103, 104, 105, 106, 107, 108, 109, 110, 111, 112, 113, 114, 115, 116, 117, 118, 119, 120, 121, 122, 123, 124, 125, 126, 127, 128, 129, 130, 131, 132, 133, 134, 135, 136, 137, 138, 139, 140, 141, 142, 143, 144, 145, 146, 147, 148, 149, 150, 151, 152, 153, 154, 155, 156, 157, 158, 159, 160, 161, 162, 163, 164, 165, 166, 167, 168, 169, 170, 171, 172, 173, 174, 175, 176, 177, 178, 179, 180, 181, 182, 183, 184, 185, 186, 187, 188, 189, 190, 191, 192, 193, 194, 195, 196, 197, 198, 199, 200, 201, 202, 203, 204, 205, 206, 207, 208, 209, 210, 211, 212, 213, 214, 215, 216, 217, 218, 219, 220, 221, 222, 223, 224, 225, 226, 227, 228, 229, 230, 231, 232, 233, 234, 235, 236, 237, 238, 239, 240, 241, 242, 243, 244, 245, 246, 247, 248, 249, 250, 251, 252, 253, 254, 255, 256, 257, 258, 259, 260, 261, 262, 263, 264, 265, 266, 267, 268, 269, 270, 271, 272, 273, 274, 275, 276, 277, 278, 279, 280, 281, 282, 283, 284, 285, 286, 287, 288, 289, 290, 291, 292, 293, 294, 295, 296, 297, 298, 299, 300, 301, 302, 303, 304, 305, 306, 307, 308, 309, 310, 311, 312, 313, 314, 315, 316, 317, 318, 319, 320, 321, 322, 323, 324, 325, 326, 327, 328, 329, 330, 331, 332, 333, 334, 335, 336, 337, 338, 339, 340, 341, 342, 343, 344, 345, 346, 347, 348, 349, 350, 351, 352, 353, 354, 355, 356, 357, 358, 359, 360, 361, 362, 363, 364, 365, 366, 367, 368, 369, 370, 371, 372, 373, 374, 375, 376, 377, 378, 379, 380, 381, 382, 383, 384, 385, 386, 387], "AcquisitionTime": ["080855.225000", "080902.165000", "080903.325000", "080904.485000", "080905.645000", "080906.805000", "080907.965000", "080909.125000", "080910.285000", "080911.445000", "080912.605000", "080913.765000", "080914.925000", "080916.085000", "080917.245000", "080918.405000", "080919.565000", "080920.725000", "080921.885000", "080923.045000", "080924.205000", "080925.365000", "080926.525000", "080927.685000", "080928.845000", "080930.005000", "080931.165000", "080932.325000", "080933.485000", "080934.645000", "080935.805000", "080936.965000", "080938.125000", "080939.285000", "080940.445000", "080941.605000", "080942.765000", "080943.925000", "080945.085000", "080946.245000", "080947.405000", "080948.565000", "080949.725000", "080950.885000", "080952.045000", "080953.205000", "080954.365000", "080955.525000", "080956.685000", "080957.845000", "080959.005000", "081000.165000", "081001.325000", "081002.485000", "081003.645000", "081004.805000", "081005.965000", "081007.125000", "081008.285000", "081009.445000", "081010.605000", "081011.765000", "081012.925000", "081014.085000", "081015.245000", "081016.405000", "081017.565000", "081018.725000", "081019.885000", "081021.045000", "081022.205000", "081023.365000", "081024.525000", "081025.685000", "081026.845000", "081028.005000", "081029.165000", "081030.325000", "081031.485000", "081032.645000", "081033.805000", "081034.965000", "081036.125000", "081037.285000", "081038.445000", "081039.605000", "081040.765000", "081041.925000", "081043.085000", "081044.245000", "081045.405000", "081046.565000", "081047.725000", "081048.885000", "081050.045000", "081051.205000", "081052.365000", "081053.525000", "081054.685000", "081055.845000", "081057.005000", "081058.165000", "081059.325000", "081100.485000", "081101.645000", "081102.805000", "081103.965000", "081105.125000", "081106.285000", "081107.445000", "081108.605000", "081109.765000", "081110.925000", "081112.085000", "081113.245000", "081114.405000", "081115.565000", "081116.725000", "081117.885000", "081119.045000", "081120.205000", "081121.365000", "081122.525000", "081123.685000", "081124.845000", "081126.005000", "081127.165000", "081128.325000", "081129.485000", "081130.645000", "081131.805000", "081132.965000", "081134.125000", "081135.285000", "081136.445000", "081137.605000", "081138.765000", "081139.925000", "081141.085000", "081142.245000", "081143.405000", "081144.565000", "081145.725000", "081146.885000", "081148.045000", "081149.205000", "081150.365000", "081151.525000", "081152.685000", "081153.845000", "081155.005000", "081156.165000", "081157.325000", "081158.485000", "081159.645000", "081200.805000", "081201.965000", "081203.125000", "081204.285000", "081205.445000", "081206.605000", "081207.765000", "081208.925000", "081210.085000", "081211.245000", "081212.405000", "081213.565000", "081214.725000", "081215.885000", "081217.045000", "081218.205000", "081219.365000", "081220.525000", "081221.685000", "081222.845000", "081224.005000", "081225.165000", "081226.325000", "081227.485000", "081228.645000", "081229.805000", "081230.965000", "081232.125000", "081233.285000", "081234.445000", "081235.605000", "081236.765000", "081237.925000", "081239.085000", "081240.245000", "081241.405000", "081242.565000", "081243.725000", "081244.885000", "081246.045000", "081247.205000", "081248.365000", "081249.525000", "081250.685000", "081251.845000", "081253.005000", "081254.165000", "081255.325000", "081256.485000", "081257.645000", "081258.805000", "081259.965000", "081301.125000", "081302.285000", "081303.445000", "081304.605000", "081305.765000", "081306.925000", "081308.085000", "081309.245000", "081310.405000", "081311.565000", "081312.725000", "081313.885000", "081315.045000", "081316.205000", "081317.365000", "081318.525000", "081319.685000", "081320.845000", "081322.005000", "081323.165000", "081324.325000", "081325.485000", "081326.645000", "081327.805000", "081328.965000", "081330.125000", "081331.285000", "081332.445000", "081333.605000", "081334.765000", "081335.925000", "081337.085000", "081338.245000", "081339.405000", "081340.565000", "081341.725000", "081342.885000", "081344.045000", "081345.205000", "081346.365000", "081347.525000", "081348.685000", "081349.845000", "081351.007500", "081352.167500", "081353.327500", "081354.487500", "081355.647500", "081356.807500", "081357.967500", "081359.127500", "081400.287500", "081401.447500", "081402.607500", "081403.767500", "081404.927500", "081406.087500", "081407.247500", "081408.407500", "081409.567500", "081410.727500", "081411.887500", "081413.047500", "081414.207500", "081415.367500", "081416.527500", "081417.687500", "081418.847500", "081420.007500", "081421.167500", "081422.327500", "081423.487500", "081424.647500", "081425.807500", "081426.967500", "081428.127500", "081429.287500", "081430.447500", "081431.607500", "081432.767500", "081433.927500", "081435.087500", "081436.247500", "081437.407500", "081438.567500", "081439.727500", "081440.887500", "081442.047500", "081443.207500", "081444.367500", "081445.527500", "081446.687500", "081447.847500", "081449.007500", "081450.167500", "081451.327500", "081452.487500", "081453.647500", "081454.807500", "081455.967500", "081457.127500", "081458.287500", "081459.447500", "081500.607500", "081501.767500", "081502.927500", "081504.087500", "081505.247500", "081506.407500", "081507.567500", "081508.727500", "081509.887500", "081511.047500", "081512.207500", "081513.367500", "081514.527500", "081515.687500", "081516.847500", "081518.007500", "081519.167500", "081520.327500", "081521.487500", "081522.647500", "081523.807500", "081524.967500", "081526.127500", "081527.287500", "081528.447500", "081529.607500", "081530.767500", "081531.927500", "081533.087500", "081534.247500", "081535.407500", "081536.567500", "081537.727500", "081538.887500", "081540.047500", "081541.207500", "081542.367500", "081543.527500", "081544.687500", "081545.847500", "081547.007500", "081548.167500", "081549.327500", "081550.487500", "081551.647500", "081552.807500", "081553.967500", "081555.127500", "081556.287500", "081557.447500", "081558.607500", "081559.767500", "081600.927500", "081602.087500", "081603.247500", "081604.407500", "081605.567500", "081606.727500", "081607.887500", "081609.047500", "081610.207500", "081611.367500", "081612.527500", "081613.687500", "081614.847500", "081616.007500", "081617.167500", "081618.327500", "081619.487500", "081620.647500", "081621.807500", "081622.967500", "081624.127500", "081625.287500", "081626.447500", "081627.607500", "081628.767500"], "ContentTime": ["080946.142000", "080946.147000", "080946.151000", "080946.154000", "080946.158000", "080946.163000", "080946.166000", "080946.170000", "080946.174000", "080946.179000", "080946.182000", "080946.187000", "080946.191000", "080946.195000", "080946.199000", "080946.202000", "080946.206000", "080946.210000", "080946.213000", "080946.217000", "080946.220000", "080946.224000", "080946.229000", "080946.233000", "080946.237000", "080946.240000", "080946.244000", "080946.247000", "080946.251000", "080946.255000", "080946.260000", "080946.263000", "080946.267000", "080946.275000", "080946.279000", "081006.090000", "081006.094000", "081006.098000", "081006.102000", "081006.106000", "081006.110000", "081006.114000", "081006.118000", "081006.121000", "081006.126000", "081006.129000", "081006.133000", "081006.137000", "081006.142000", "081006.145000", "081006.149000", "081006.153000", "081006.158000", "081006.161000", "081006.165000", "081046.090000", "081046.094000", "081046.098000", "081046.102000", "081046.106000", "081046.110000", "081046.114000", "081046.118000", "081046.122000", "081046.126000", "081046.130000", "081046.134000", "081046.143000", "081046.147000", "081046.151000", "081046.155000", "081046.159000", "081046.163000", "081046.167000", "081046.171000", "081046.175000", "081046.179000", "081046.183000", "081046.187000", "081046.191000", "081046.195000", "081046.198000", "081046.202000", "081046.206000", "081046.210000", "081046.214000", "081046.219000", "081046.223000", "081046.227000", "081046.231000", "081126.090000", "081126.095000", "081126.098000", "081126.102000", "081126.106000", "081126.110000", "081126.114000", "081126.117000", "081126.121000", "081126.125000", "081126.129000", "081126.133000", "081126.137000", "081126.140000", "081126.144000", "081126.148000", "081126.152000", "081126.156000", "081126.160000", "081126.164000", "081126.168000", "081126.179000", "081126.183000", "081126.187000", "081126.191000", "081126.195000", "081126.199000", "081126.202000", "081126.207000", "081126.211000", "081126.214000", "081126.218000", "081126.222000", "081126.227000", "081206.090000", "081206.094000", "081206.098000", "081206.102000", "081206.110000", "081206.114000", "081206.118000", "081206.121000", "081206.125000", "081206.129000", "081206.133000", "081206.138000", "081206.142000", "081206.145000", "081206.149000", "081206.153000", "081206.157000", "081206.161000", "081206.165000", "081206.169000", "081206.173000", "081206.176000", "081206.180000", "081206.184000", "081206.188000", "081206.193000", "081206.197000", "081206.200000", "081206.204000", "081206.208000", "081206.212000", "081206.216000", "081206.220000", "081206.224000", "081206.228000", "081246.092000", "081246.103000", "081246.107000", "081246.111000", "081246.115000", "081246.119000", "081246.123000", "081246.127000", "081246.131000", "081246.135000", "081246.139000", "081246.142000", "081246.146000", "081246.150000", "081246.154000", "081246.158000", "081246.162000", "081246.166000", "081246.170000", "081246.174000", "081246.178000", "081246.182000", "081246.186000", "081246.189000", "081246.193000", "081246.197000", "081246.201000", "081246.206000", "081246.210000", "081246.214000", "081246.217000", "081246.221000", "081246.225000", "081246.230000", "081326.092000", "081326.096000", "081326.100000", "081326.104000", "081326.108000", "081326.112000", "081326.116000", "081326.120000", "081326.124000", "081326.128000", "081326.132000", "081326.136000", "081326.140000", "081326.144000", "081326.148000", "081326.152000", "081326.156000", "081326.160000", "081326.164000", "081326.168000", "081326.172000", "081326.176000", "081326.180000", "081326.184000", "081326.188000", "081326.192000", "081326.196000", "081326.200000", "081326.204000", "081326.208000", "081326.213000", "081326.217000", "081326.221000", "081326.225000", "081326.229000", "081406.092000", "081406.096000", "081406.100000", "081406.104000", "081406.109000", "081406.113000", "081406.117000", "081406.121000", "081406.125000", "081406.129000", "081406.133000", "081406.137000", "081406.141000", "081406.145000", "081406.149000", "081406.153000", "081406.157000", "081406.161000", "081406.165000", "081406.169000", "081406.173000", "081406.177000", "081406.181000", "081406.185000", "081406.188000", "081406.192000", "081406.196000", "081406.200000", "081406.203000", "081406.207000", "081406.211000", "081406.215000", "081406.219000", "081406.223000", "081446.090000", "081446.094000", "081446.098000", "081446.102000", "081446.106000", "081446.110000", "081446.114000", "081446.117000", "081446.121000", "081446.125000", "081446.129000", "081446.133000", "081446.137000", "081446.141000", "081446.145000", "081446.149000", "081446.153000", "081446.156000", "081446.160000", "081446.164000", "081446.168000", "081446.172000", "081446.176000", "081446.180000", "081446.183000", "081446.187000", "081446.192000", "081446.195000", "081446.199000", "081446.203000", "081446.207000", "081446.211000", "081446.215000", "081446.219000", "081446.223000", "081526.091000", "081526.106000", "081526.110000", "081526.150000", "081526.154000", "081526.158000", "081526.162000", "081526.166000", "081526.170000", "081526.174000", "081526.178000", "081526.182000", "081526.186000", "081526.190000", "081526.193000", "081526.197000", "081526.201000", "081526.205000", "081526.209000", "081526.214000", "081526.217000", "081526.221000", "081526.225000", "081526.229000", "081526.233000", "081526.237000", "081526.241000", "081526.245000", "081526.249000", "081526.253000", "081526.256000", "081526.260000", "081526.264000", "081526.268000", "081606.091000", "081606.096000", "081606.100000", "081606.104000", "081606.108000", "081606.111000", "081606.115000", "081606.120000", "081606.124000", "081606.128000", "081606.131000", "081606.136000", "081606.139000", "081606.143000", "081606.147000", "081606.152000", "081606.156000", "081606.160000", "081606.164000", "081606.168000", "081606.172000", "081606.175000", "081606.179000", "081606.183000", "081606.187000", "081606.191000", "081606.195000", "081606.200000", "081606.204000", "081606.207000", "081606.211000", "081606.215000", "081606.219000", "081606.223000", "081606.227000", "081630.347000", "081630.351000", "081630.355000", "081630.359000", "081630.362000", "081630.366000", "081630.370000", "081630.373000", "081630.377000", "081630.381000", "081630.385000", "081630.389000", "081630.392000", "081630.396000", "081630.400000", "081630.404000", "081630.408000", "081630.412000", "081630.416000", "081630.420000", "081630.423000"], "InstanceCreationTime": ["080946.142000", "080946.147000", "080946.151000", "080946.154000", "080946.158000", "080946.163000", "080946.166000", "080946.170000", "080946.174000", "080946.179000", "080946.182000", "080946.187000", "080946.191000", "080946.195000", "080946.199000", "080946.202000", "080946.206000", "080946.210000", "080946.213000", "080946.217000", "080946.220000", "080946.224000", "080946.229000", "080946.233000", "080946.237000", "080946.240000", "080946.244000", "080946.247000", "080946.251000", "080946.255000", "080946.260000", "080946.263000", "080946.267000", "080946.275000", "080946.279000", "081006.090000", "081006.094000", "081006.098000", "081006.102000", "081006.106000", "081006.110000", "081006.114000", "081006.118000", "081006.121000", "081006.126000", "081006.129000", "081006.133000", "081006.137000", "081006.142000", "081006.145000", "081006.149000", "081006.153000", "081006.158000", "081006.161000", "081006.165000", "081046.090000", "081046.094000", "081046.098000", "081046.102000", "081046.106000", "081046.110000", "081046.114000", "081046.118000", "081046.122000", "081046.126000", "081046.130000", "081046.134000", "081046.143000", "081046.147000", "081046.151000", "081046.155000", "081046.159000", "081046.163000", "081046.167000", "081046.171000", "081046.175000", "081046.179000", "081046.183000", "081046.187000", "081046.191000", "081046.195000", "081046.198000", "081046.202000", "081046.206000", "081046.210000", "081046.214000", "081046.219000", "081046.223000", "081046.227000", "081046.231000", "081126.090000", "081126.095000", "081126.098000", "081126.102000", "081126.106000", "081126.110000", "081126.114000", "081126.117000", "081126.121000", "081126.125000", "081126.129000", "081126.133000", "081126.137000", "081126.140000", "081126.144000", "081126.148000", "081126.152000", "081126.156000", "081126.160000", "081126.164000", "081126.168000", "081126.179000", "081126.183000", "081126.187000", "081126.191000", "081126.195000", "081126.199000", "081126.202000", "081126.207000", "081126.211000", "081126.214000", "081126.218000", "081126.222000", "081126.227000", "081206.090000", "081206.094000", "081206.098000", "081206.102000", "081206.110000", "081206.114000", "081206.118000", "081206.121000", "081206.125000", "081206.129000", "081206.133000", "081206.138000", "081206.142000", "081206.145000", "081206.149000", "081206.153000", "081206.157000", "081206.161000", "081206.165000", "081206.169000", "081206.173000", "081206.176000", "081206.180000", "081206.184000", "081206.188000", "081206.193000", "081206.197000", "081206.200000", "081206.204000", "081206.208000", "081206.212000", "081206.216000", "081206.220000", "081206.224000", "081206.228000", "081246.092000", "081246.103000", "081246.107000", "081246.111000", "081246.115000", "081246.119000", "081246.123000", "081246.127000", "081246.131000", "081246.135000", "081246.139000", "081246.142000", "081246.146000", "081246.150000", "081246.154000", "081246.158000", "081246.162000", "081246.166000", "081246.170000", "081246.174000", "081246.178000", "081246.182000", "081246.186000", "081246.189000", "081246.193000", "081246.197000", "081246.201000", "081246.206000", "081246.210000", "081246.214000", "081246.217000", "081246.221000", "081246.225000", "081246.230000", "081326.092000", "081326.096000", "081326.100000", "081326.104000", "081326.108000", "081326.112000", "081326.116000", "081326.120000", "081326.124000", "081326.128000", "081326.132000", "081326.136000", "081326.140000", "081326.144000", "081326.148000", "081326.152000", "081326.156000", "081326.160000", "081326.164000", "081326.168000", "081326.172000", "081326.176000", "081326.180000", "081326.184000", "081326.188000", "081326.192000", "081326.196000", "081326.200000", "081326.204000", "081326.208000", "081326.213000", "081326.217000", "081326.221000", "081326.225000", "081326.229000", "081406.092000", "081406.096000", "081406.100000", "081406.104000", "081406.109000", "081406.113000", "081406.117000", "081406.121000", "081406.125000", "081406.129000", "081406.133000", "081406.137000", "081406.141000", "081406.145000", "081406.149000", "081406.153000", "081406.157000", "081406.161000", "081406.165000", "081406.169000", "081406.173000", "081406.177000", "081406.181000", "081406.185000", "081406.188000", "081406.192000", "081406.196000", "081406.200000", "081406.203000", "081406.207000", "081406.211000", "081406.215000", "081406.219000", "081406.223000", "081446.090000", "081446.094000", "081446.098000", "081446.102000", "081446.106000", "081446.110000", "081446.114000", "081446.117000", "081446.121000", "081446.125000", "081446.129000", "081446.133000", "081446.137000", "081446.141000", "081446.145000", "081446.149000", "081446.153000", "081446.156000", "081446.160000", "081446.164000", "081446.168000", "081446.172000", "081446.176000", "081446.180000", "081446.183000", "081446.187000", "081446.192000", "081446.195000", "081446.199000", "081446.203000", "081446.207000", "081446.211000", "081446.215000", "081446.219000", "081446.223000", "081526.091000", "081526.106000", "081526.110000", "081526.150000", "081526.154000", "081526.158000", "081526.162000", "081526.166000", "081526.170000", "081526.174000", "081526.178000", "081526.182000", "081526.186000", "081526.190000", "081526.193000", "081526.197000", "081526.201000", "081526.205000", "081526.209000", "081526.214000", "081526.217000", "081526.221000", "081526.225000", "081526.229000", "081526.233000", "081526.237000", "081526.241000", "081526.245000", "081526.249000", "081526.253000", "081526.256000", "081526.260000", "081526.264000", "081526.268000", "081606.091000", "081606.096000", "081606.100000", "081606.104000", "081606.108000", "081606.111000", "081606.115000", "081606.120000", "081606.124000", "081606.128000", "081606.131000", "081606.136000", "081606.139000", "081606.143000", "081606.147000", "081606.152000", "081606.156000", "081606.160000", "081606.164000", "081606.168000", "081606.172000", "081606.175000", "081606.179000", "081606.183000", "081606.187000", "081606.191000", "081606.195000", "081606.200000", "081606.204000", "081606.207000", "081606.211000", "081606.215000", "081606.219000", "081606.223000", "081606.227000", "081630.347000", "081630.351000", "081630.355000", "081630.359000", "081630.362000", "081630.366000", "081630.370000", "081630.373000", "081630.377000", "081630.381000", "081630.385000", "081630.389000", "081630.392000", "081630.396000", "081630.400000", "081630.404000", "081630.408000", "081630.412000", "081630.416000", "081630.420000", "081630.423000"], "InstanceNumber": [1, 2, 3, 4, 5, 6, 7, 8, 9, 10, 11, 12, 13, 14, 15, 16, 17, 18, 19, 20, 21, 22, 23, 24, 25, 26, 27, 28, 29, 30, 31, 32, 33, 34, 35, 36, 37, 38, 39, 40, 41, 42, 43, 44, 45, 46, 47, 48, 49, 50, 51, 52, 53, 54, 55, 56, 57, 58, 59, 60, 61, 62, 63, 64, 65, 66, 67, 68, 69, 70, 71, 72, 73, 74, 75, 76, 77, 78, 79, 80, 81, 82, 83, 84, 85, 86, 87, 88, 89, 90, 91, 92, 93, 94, 95, 96, 97, 98, 99, 100, 101, 102, 103, 104, 105, 106, 107, 108, 109, 110, 111, 112, 113, 114, 115, 116, 117, 118, 119, 120, 121, 122, 123, 124, 125, 126, 127, 128, 129, 130, 131, 132, 133, 134, 135, 136, 137, 138, 139, 140, 141, 142, 143, 144, 145, 146, 147, 148, 149, 150, 151, 152, 153, 154, 155, 156, 157, 158, 159, 160, 161, 162, 163, 164, 165, 166, 167, 168, 169, 170, 171, 172, 173, 174, 175, 176, 177, 178, 179, 180, 181, 182, 183, 184, 185, 186, 187, 188, 189, 190, 191, 192, 193, 194, 195, 196, 197, 198, 199, 200, 201, 202, 203, 204, 205, 206, 207, 208, 209, 210, 211, 212, 213, 214, 215, 216, 217, 218, 219, 220, 221, 222, 223, 224, 225, 226, 227, 228, 229, 230, 231, 232, 233, 234, 235, 236, 237, 238, 239, 240, 241, 242, 243, 244, 245, 246, 247, 248, 249, 250, 251, 252, 253, 254, 255, 256, 257, 258, 259, 260, 261, 262, 263, 264, 265, 266, 267, 268, 269, 270, 271, 272, 273, 274, 275, 276, 277, 278, 279, 280, 281, 282, 283, 284, 285, 286, 287, 288, 289, 290, 291, 292, 293, 294, 295, 296, 297, 298, 299, 300, 301, 302, 303, 304, 305, 306, 307, 308, 309, 310, 311, 312, 313, 314, 315, 316, 317, 318, 319, 320, 321, 322, 323, 324, 325, 326, 327, 328, 329, 330, 331, 332, 333, 334, 335, 336, 337, 338, 339, 340, 341, 342, 343, 344, 345, 346, 347, 348, 349, 350, 351, 352, 353, 354, 355, 356, 357, 358, 359, 360, 361, 362, 363, 364, 365, 366, 367, 368, 369, 370, 371, 372, 373, 374, 375, 376, 377, 378, 379, 380, 381, 382, 383, 384, 385, 386, 387], "LargestImagePixelValue": [35027, 33315, 32636, 32288, 42165, 49560, 39510, 31906, 31655, 44046, 46877, 32396, 36065, 31629, 32206, 42131, 31640, 31611, 38485, 46020, 31607, 31881, 31686, 46651, 46518, 31568, 31795, 31895, 44571, 47947, 31881, 31942, 31602, 46507, 50176, 34359, 33035, 31759, 41720, 48957, 41458, 31944, 32399, 42359, 42092, 31741, 31940, 31980, 32068, 37145, 31570, 32465, 49523, 40593, 31910, 33242, 41283, 43090, 42576, 37902, 31518, 31785, 41167, 34847, 39739, 31525, 42583, 34269, 32975, 48638, 47996, 31651, 31699, 42852, 37394, 37421, 31778, 31687, 39247, 31575, 36738, 50388, 42625, 31888, 31920, 44027, 36852, 31813, 43879, 31986, 33026, 37234, 32079, 31503, 47645, 43696, 32164, 32363, 44580, 32545, 34985, 49832, 34066, 32109, 32106, 48489, 34381, 38412, 31865, 32084, 35326, 32067, 39008, 49989, 34995, 32000, 31886, 40273, 40282, 44347, 34599, 31752, 41489, 38254, 31639, 42550, 31932, 32041, 33184, 32019, 45645, 44647, 42574, 31842, 34720, 40360, 32238, 32078, 47680, 31963, 34227, 31866, 40510, 41943, 34353, 38304, 31680, 40183, 33727, 31717, 31786, 47697, 42866, 31852, 33556, 31647, 43709, 48370, 42873, 32605, 33027, 48759, 34306, 47858, 32059, 31998, 40870, 44340, 31710, 42921, 31412, 31731, 38523, 31652, 45010, 46449, 31245, 31278, 43824, 36631, 31601, 44621, 40105, 31105, 46996, 33106, 46680, 47251, 37292, 31030, 31099, 45780, 35674, 39822, 465