{"AcquisitionMatrixPE": 96, "AcquisitionNumber": 1, "AcquisitionTime": "17:26:33.735000", "BaseResolution": 96, "BodyPartExamined": "BRAIN", "ConsistencyInfo": "N4_VD11D_LATEST_20110129", "ConversionSoftware": "dcm2niix", "ConversionSoftwareVersion": "v1.0.20210317", "DeviceSerialNumber": "45239", "DwellTime": 9.2e-06, "EchoNumber": 2, "EchoTime": 0.00738, "EchoTime1": 0.00492, "EchoTime2": 0.00738, "FlipAngle": 50, "ImageOrientationPatientDICOM": [0.997679, 0.0153188, 0.0663423, 0.0263309, 0.811751, -0.58341], "ImageType": ["ORIGINAL", "PRIMARY", "P", "ND", "PHASE"], "ImagingFrequency": 123.193, "InPlanePhaseEncodingDirectionDICOM": "COL", "InstitutionAddress": "E 24th St. 100,Austin,Southmiddle,US,78712", "InstitutionName": "Univ of Texas at Austin", "InstitutionalDepartmentName": "IRC", "MRAcquisitionType": "2D", "MagneticFieldStrength": 3, "Manufacturer": "Siemens", "ManufacturersModelName": "Skyra", "Modality": "MR", "PartialFourier": 1, "PatientPosition": "HFS", "PercentPhaseFOV": 100, "PercentSampling": 100, "PhaseEncodingDirection": "j-", "PhaseEncodingSteps": 96, "PhaseResolution": 1, "PixelBandwidth": 565, "ProcedureStepDescription": "Poldrack2^self-scanning", "ProtocolName": "gre_field_mapping", "PulseSequenceDetails": "%SiemensSeq%\\gre_field_mapping", "ReceiveCoilActiveElements": "HEA;HEP", "ReceiveCoilName": "Head_32", "ReconMatrixPE": 96, "RepetitionTime": 0.731, "SAR": 0.118586, "ScanningSequence": "GR", "SequenceName": "*fm2d2r", "SequenceVariant": "SP", "SeriesDescription": "gre_field_mapping", "SeriesNumber": 11, "ShimSetting": [-2762, 8064, -15449, 201, -187, 141, 117, -68], "SliceThickness": 2, "SliceTiming": [0.35938, 0, 0.375, 0, 0.375, 0.01562, 0.39062, 0.03125, 0.40625, 0.03125, 0.40625, 0.04688, 0.42188, 0.0625, 0.4375, 0.0625, 0.4375, 0.07812, 0.45312, 0.09375, 0.46875, 0.10938, 0.48438, 0.10938, 0.48438, 0.125, 0.5, 0.14062, 0.51562, 0.14062, 0.51562, 0.15625, 0.53125, 0.17188, 0.54688, 0.17188, 0.54688, 0.1875, 0.5625, 0.20312, 0.57812, 0.20312, 0.57812, 0.21875, 0.59375, 0.23438, 0.60938, 0.25, 0.625, 0.25, 0.625, 0.26562, 0.64062, 0.26562, 0.65625, 0.28125, 0.65625, 0.29688, 0.67188, 0.3125, 0.6875, 0.3125, 0.6875, 0.32812, 0.70312, 0.34375, 0.71875, 0.34375], "SoftwareVersions": "syngo MR D11", "SpacingBetweenSlices": 2.4, "StationName": "AWP45239", "TxRefAmp": 345.083, "dcmmeta_affine": [[-2.390273332595825, 0.06308434903621674, 0.1506972312927246, 109.60630798339844], [-0.0367012582719326, 1.9448188543319702, -1.401123046875, -67.30485534667969], [0.15894506871700287, 1.397754192352295, 1.9427108764648438, -100.61866760253906], [0.0, 0.0, 0.0, 1.0]], "dcmmeta_reorient_transform": [[0.0, -1.0, 0.0, 95.0], [1.0, 0.0, 0.0, 0.0], [0.0, 0.0, -1.0, 67.0], [0.0, 0.0, 0.0, 1.0]], "dcmmeta_shape": [96, 96, 68], "dcmmeta_slice_dim": 2, "dcmmeta_version": 0.6, "global": {"const": {"AcquisitionMatrix": [96, 0, 0, 96], "AcquisitionNumber": 1, "AngioFlag": "N", "BitsAllocated": 16, "BitsStored": 12, "BodyPartExamined": "BRAIN", "Columns": 96, "EchoNumbers": 2, "EchoTime": 7.38, "EchoTrainLength": 0, "FlipAngle": 50.0, "HighBit": 11, "ImageOrientationPatient": [0.99767932484594, 0.01531878713477, 0.06634229070264, 0.02633085816498, 0.81175052867031, -0.5834104602351], "ImageType": ["ORIGINAL", "PRIMARY", "P", "ND"], "ImagedNucleus": "1H", "ImagingFrequency": 123.193406, "InPlanePhaseEncodingDirection": "COL", "MRAcquisitionType": "2D", "MagneticFieldStrength": 3.0, "Manufacturer": "SIEMENS", "ManufacturerModelName": "Skyra", "Modality": "MR", "NumberOfAverages": 1.0, "NumberOfPhaseEncodingSteps": 96, "PercentPhaseFieldOfView": 100.0, "PercentSampling": 100.0, "PerformedProcedureStepStartTime": "165810.953000", "PhotometricInterpretation": "MONOCHROME2", "PixelBandwidth": 565.0, "PixelRepresentation": 0, "PixelSpacing": [2.3958332538605, 2.3958332538605], "ProtocolName": "gre_field_mapping", "RepetitionTime": 731.0, "RescaleIntercept": -4096.0, "RescaleSlope": 2.0, "RescaleType": "US", "Rows": 96, "SAR": 0.11858648497117, "SamplesPerPixel": 1, "ScanningSequence": "GR", "SequenceName": "*fm2d2r", "SequenceVariant": "SP", "SeriesDescription": "gre_field_mapping", "SeriesNumber": 11, "SeriesTime": "172855.468000", "SliceThickness": 2.0, "SoftwareVersions": "syngo MR D11", "SpacingBetweenSlices": 2.4, "SpecificCharacterSet": "ISO_IR 100", "StudyID": "1", "StudyTime": "165810.812000", "TransmitCoilName": "Body", "VariableFlipAngleFlag": "N", "WindowCenterWidthExplanation": "Algo1", "dBdt": 0.0}, "slices": {"AcquisitionTime": ["172633.735000", "172633.370000", "172633.745000", "172633.380000", "172633.755000", "172633.390000", "172633.767500", "172633.402500", "172633.777500", "172633.412500", "172633.787500", "172633.422500", "172633.800000", "172633.432500", "172633.810000", "172633.445000", "172633.820000", "172633.455000", "172633.832500", "172633.465000", "172633.842500", "172633.477500", "172633.852500", "172633.487500", "172633.862500", "172633.497500", "172633.875000", "172633.510000", "172633.885000", "172633.520000", "172633.895000", "172633.530000", "172633.907500", "172633.540000", "172633.917500", "172633.552500", "172633.927500", "172633.562500", "172633.940000", "172633.572500", "172633.950000", "172633.585000", "172633.960000", "172633.595000", "172633.970000", "172633.605000", "172633.982500", "172633.617500", "172633.992500", "172633.627500", "172634.002500", "172633.637500", "172634.015000", "172633.647500", "172634.025000", "172633.660000", "172634.035000", "172633.670000", "172634.047500", "172633.680000", "172634.057500", "172633.692500", "172634.067500", "172633.702500", "172634.077500", "172633.712500", "172634.090000", "172633.725000"], "ContentTime": ["172855.562000", "172855.468000", "172855.578000", "172855.468000", "172855.578000", "172855.484000", "172855.578000", "172855.484000", "172855.578000", "172855.484000", "172855.578000", "172855.484000", "172855.578000", "172855.484000", "172855.578000", "172855.500000", "172855.578000", "172855.500000", "172855.593000", "172855.500000", "172855.593000", "172855.500000", "172855.593000", "172855.515000", "172855.593000", "172855.515000", "172855.593000", "172855.515000", "172855.593000", "172855.515000", "172855.593000", "172855.531000", "172855.609000", "172855.531000", "172855.609000", "172855.531000", "172855.609000", "172855.531000", "172855.609000", "172855.531000", "172855.609000", "172855.531000", "172855.609000", "172855.531000", "172855.609000", "172855.531000", "172855.609000", "172855.546000", "172855.609000", "172855.546000", "172855.625000", "172855.546000", "172855.625000", "172855.546000", "172855.625000", "172855.546000", "172855.625000", "172855.546000", "172855.625000", "172855.546000", "172855.625000", "172855.546000", "172855.625000", "172855.562000", "172855.640000", "172855.562000", "172855.640000", "172855.562000"], "CsaImage.GSWDDataType": ["predicted", "predicted", "predicted", "predicted", "predicted", "predicted", "predicted", "predicted", "predicted", "predicted", "predicted", "predicted", "predicted", "predicted", "predicted", "predicted", "predicted", "predicted", "predicted", "predicted", "predicted", "predicted", "predicted", "predicted", "measured", "predicted", "measured", "predicted", "measured", "predicted", "measured", "predicted", "measured", "predicted", "measured", "predicted", "measured", "predicted", "measured", "predicted", "measured", "predicted", "measured", "predicted", "measured", "predicted", "measured", "predicted", "measured", "predicted", "measured", "predicted", "measured", "predicted", "measured", "predicted", "measured", "predicted", "measured", "predicted", "measured", "predicted", "measured", "predicted", "measured", "predicted", "measured", "predicted"], "CsaImage.ICE_Dims": ["X_2_1_1_1_1_1_35_1_1_1_1_34", "X_2_1_1_1_1_1_1_1_1_2_1_34", "X_2_1_1_1_1_1_36_1_1_3_1_34", "X_2_1_1_1_1_1_2_1_1_4_1_34", "X_2_1_1_1_1_1_37_1_1_5_1_34", "X_2_1_1_1_1_1_3_1_1_6_1_34", "X_2_1_1_1_1_1_38_1_1_7_1_34", "X_2_1_1_1_1_1_4_1_1_8_1_34", "X_2_1_1_1_1_1_39_1_1_9_1_34", "X_2_1_1_1_1_1_5_1_1_10_1_34", "X_2_1_1_1_1_1_40_1_1_11_1_34", "X_2_1_1_1_1_1_6_1_1_12_1_34", "X_2_1_1_1_1_1_41_1_1_13_1_34", "X_2_1_1_1_1_1_7_1_1_14_1_34", "X_2_1_1_1_1_1_42_1_1_15_1_34", "X_2_1_1_1_1_1_8_1_1_16_1_34", "X_2_1_1_1_1_1_43_1_1_17_1_34", "X_2_1_1_1_1_1_9_1_1_18_1_34", "X_2_1_1_1_1_1_44_1_1_19_1_34", "X_2_1_1_1_1_1_10_1_1_20_1_34", "X_2_1_1_1_1_1_45_1_1_21_1_34", "X_2_1_1_1_1_1_11_1_1_22_1_34", "X_2_1_1_1_1_1_46_1_1_23_1_34", "X_2_1_1_1_1_1_12_1_1_24_1_34", "X_2_1_1_1_1_1_47_1_1_25_1_34", "X_2_1_1_1_1_1_13_1_1_26_1_34", "X_2_1_1_1_1_1_48_1_1_27_1_34", "X_2_1_1_1_1_1_14_1_1_28_1_34", "X_2_1_1_1_1_1_49_1_1_29_1_34", "X_2_1_1_1_1_1_15_1_1_30_1_34", "X_2_1_1_1_1_1_50_1_1_31_1_34", "X_2_1_1_1_1_1_16_1_1_32_1_34", "X_2_1_1_1_1_1_51_1_1_33_1_34", "X_2_1_1_1_1_1_17_1_1_34_1_34", "X_2_1_1_1_1_1_52_1_1_35_1_34", "X_2_1_1_1_1_1_18_1_1_36_1_34", "X_2_1_1_1_1_1_53_1_1_37_1_34", "X_2_1_1_1_1_1_19_1_1_38_1_34", "X_2_1_1_1_1_1_54_1_1_39_1_34", "X_2_1_1_1_1_1_20_1_1_40_1_34", "X_2_1_1_1_1_1_55_1_1_41_1_34", "X_2_1_1_1_1_1_21_1_1_42_1_34", "X_2_1_1_1_1_1_56_1_1_43_1_34", "X_2_1_1_1_1_1_22_1_1_44_1_34", "X_2_1_1_1_1_1_57_1_1_45_1_34", "X_2_1_1_1_1_1_23_1_1_46_1_34", "X_2_1_1_1_1_1_58_1_1_47_1_34", "X_2_1_1_1_1_1_24_1_1_48_1_34", "X_2_1_1_1_1_1_59_1_1_49_1_34", "X_2_1_1_1_1_1_25_1_1_50_1_34", "X_2_1_1_1_1_1_60_1_1_51_1_34", "X_2_1_1_1_1_1_26_1_1_52_1_34", "X_2_1_1_1_1_1_61_1_1_53_1_34", "X_2_1_1_1_1_1_27_1_1_54_1_34", "X_2_1_1_1_1_1_62_1_1_55_1_34", "X_2_1_1_1_1_1_28_1_1_56_1_34", "X_2_1_1_1_1_1_63_1_1_57_1_34", "X_2_1_1_1_1_1_29_1_1_58_1_34", "X_2_1_1_1_1_1_64_1_1_59_1_34", "X_2_1_1_1_1_1_30_1_1_60_1_34", "X_2_1_1_1_1_1_65_1_1_61_1_34", "X_2_1_1_1_1_1_31_1_1_62_1_34", "X_2_1_1_1_1_1_66_1_1_63_1_34", "X_2_1_1_1_1_1_32_1_1_64_1_34", "X_2_1_1_1_1_1_67_1_1_65_1_34", "X_2_1_1_1_1_1_33_1_1_66_1_34", "X_2_1_1_1_1_1_68_1_1_67_1_34", "X_2_1_1_1_1_1_34_1_1_68_1_34"], "CsaImage.ProtocolSliceNumber": [0, 1, 2, 3, 4, 5, 6, 7, 8, 9, 10, 11, 12, 13, 14, 15, 16, 17, 18, 19, 20, 21, 22, 23, 24, 25, 26, 27, 28, 29, 30, 31, 32, 33, 34, 35, 36, 37, 38, 39, 40, 41, 42, 43, 44, 45, 46, 47, 48, 49, 50, 51, 52, 53, 54, 55, 56, 57, 58, 59, 60, 61, 62, 63, 64, 65, 66, 67], "CsaImage.RFSWDDataType": ["predicted", "predicted", "predicted", "predicted", "predicted", "predicted", "predicted", "predicted", "predicted", "predicted", "predicted", "predicted", "predicted", "predicted", "predicted", "predicted", "predicted", "predicted", "predicted", "predicted", "measured", "predicted", "measured", "predicted", "measured", "predicted", "measured", "predicted", "measured", "predicted", "measured", "predicted", "measured", "predicted", "measured", "predicted", "measured", "predicted", "measured", "predicted", "measured", "predicted", "measured", "predicted", "measured", "predicted", "measured", "predicted", "measured", "predicted", "measured", "predicted", "measured", "predicted", "measured", "predicted", "measured", "predicted", "measured", "predicted", "measured", "predicted", "measured", "predicted", "measured", "predicted", "measured", "predicted"], "CsaImage.SlicePosition_PCS": [[-115.59931597, -117.45328112, 32.16789467], [-115.7500132, -116.05215235, 34.11060745], [-115.90071043, -114.65102549, 36.05331833], [-116.05140767, -113.24989672, 37.99603111], [-116.2021049, -111.84876795, 39.9387439], [-116.35280213, -110.44764014, 41.88145477], [-116.50349936, -109.04651232, 43.82416756], [-116.65419671, -107.64538451, 45.76687939], [-116.80489388, -106.24425574, 47.70959122], [-116.95559117, -104.84312792, 49.65230305], [-117.1062884, -103.44200011, 51.59501535], [-117.25698564, -102.04087181, 53.53772766], [-117.4076829, -100.63974352, 55.48043973], [-117.55838014, -99.23861523, 57.4231518], [-117.70907739, -97.83748718, 59.36586382], [-117.85977464, -96.43635912, 61.30857593], [-118.01047188, -95.03523092, 63.251288], [-118.16116914, -93.63410278, 65.19400007], [-118.31186637, -92.23297472, 67.13671238], [-118.46256361, -90.83184643, 69.07942421], [-118.6132609, -89.43071814, 71.02213604], [-118.76395807, -88.02959032, 72.96484882], [-118.91465542, -86.62846251, 74.90756065], [-119.06535265, -85.22733374, 76.85027344], [-119.21604988, -83.82620593, 78.79298431], [-119.36674711, -82.42507716, 80.7356971], [-119.51744434, -81.02394934, 82.67840797], [-119.66814157, -79.62282153, 84.62112076], [-119.81883893, -78.22169276, 86.56383354], [-119.96953616, -76.8205659, 88.50654442], [-120.12023339, -75.41943713, 90.4492572], [-120.27093062, -74.01830836, 92.39196808], [-120.42162785, -72.6171815, 94.33468277], [-120.57232508, -71.21605273, 96.27739365], [-120.72302231, -69.81492396, 98.22010452], [-120.87371954, -68.41379519, 100.16281921], [-121.02441678, -67.01266833, 102.10553009], [-121.17511401, -65.61153956, 104.04824097], [-121.32581124, -64.21041079, 105.99095566], [-121.47650847, -62.80928393, 107.93366653], [-121.6272057, -61.40815707, 109.87637741], [-121.77790317, -60.00702639, 111.81908829], [-121.9286004, -58.60589953, 113.76180298], [-122.07929763, -57.20477267, 115.70451385], [-122.22999486, -55.80364199, 117.64722473], [-122.3806921, -54.40251513, 119.58993942], [-122.53138933, -53.00138827, 121.5326503], [-122.68208656, -51.60025759, 123.47536499], [-122.83278379, -50.19913073, 125.41807587], [-122.98348102, -48.79800387, 127.36078674], [-123.13417825, -47.39687319, 129.30349762], [-123.28487548, -45.99574633, 131.2462085], [-123.43557271, -44.59461947, 133.18891937], [-123.58626995, -43.19348879, 135.13163788], [-123.73696718, -41.79236193, 137.07434875], [-123.88766441, -40.39123507, 139.01705963], [-124.03836164, -38.99010439, 140.95977051], [-124.18905887, -37.58897753, 142.90248138], [-124.3397561, -36.18784686, 144.84519226], [-124.49045333, -34.78671999, 146.78791077], [-124.64115057, -33.38559313, 148.73062164], [-124.7918478, -31.98446246, 150.67333252], [-124.94254503, -30.58333559, 152.6160434], [-125.09324226, -29.18220492, 154.55875427], [-125.24393997, -27.78108187, 156.50146515], [-125.3946372, -26.37995119, 158.44418365], [-125.54533443, -24.97882052, 160.38689453], [-125.69603166, -23.57769747, 162.32960541]], "CsaImage.TimeAfterStart": [1.0975, 0.7325, 1.11, 0.7425, 1.12, 0.755, 1.13, 0.765, 1.14, 0.775, 1.1525, 0.7875, 1.1625, 0.7975, 1.1725, 0.8075, 1.185, 0.8175, 1.195, 0.83, 1.205, 0.84, 1.2175, 0.85, 1.2275, 0.8625, 1.2375, 0.8725, 1.2475, 0.8825, 1.26, 0.895, 1.27, 0.905, 1.28, 0.915, 1.2925, 0.925, 1.3025, 0.9375, 1.3125, 0.9475, 1.325, 0.9575, 1.335, 0.97, 1.345, 0.98, 1.355, 0.99, 1.3675, 1.0025, 1.3775, 1.0125, 1.3875, 1.0225, 1.4, 1.0325, 1.41, 1.045, 1.42, 1.055, 1.4325, 1.065, 1.4425, 1.0775, 1.4525, 1.0875], "ImagePositionPatient": [[-115.59931597229, -117.45328112033, 32.167894667943], [-115.75001320358, -116.05215235141, 34.110607451756], [-115.90071043487, -114.65102548984, 36.053318328221], [-116.05140766617, -113.24989672091, 37.996031112035], [-116.20210489746, -111.84876795199, 39.938743895848], [-116.35280212875, -110.44764013675, 41.881454772313], [-116.50349936004, -109.0465123215, 43.824167556126], [-116.65419671055, -107.64538450625, 45.766879386266], [-116.80489388223, -106.24425573733, 47.709591216405], [-116.95559117313, -104.84312792209, 49.652303046544], [-117.10628840442, -103.44200010684, 51.59501535352], [-117.25698563572, -102.04087181476, 53.537727660497], [-117.40768289681, -100.63974352267, 55.480439729054], [-117.55838014301, -99.238615230588, 57.423151797612], [-117.7090773892, -97.837487176923, 59.365863821466], [-117.85977463539, -96.436359123258, 61.308575934728], [-118.01047188159, -95.035230920581, 63.251288003285], [-118.16116914268, -93.634102777509, 65.194000071843], [-118.31186637398, -92.232974723844, 67.136712378819], [-118.46256360527, -90.83184643176, 69.079424208958], [-118.61326089617, -89.430718139677, 71.022136039098], [-118.76395806785, -88.02959032443, 72.964848822911], [-118.91465541836, -86.628462509183, 74.90756065305], [-119.06535264965, -85.227333740262, 76.850273436864], [-119.21604988094, -83.826205925016, 78.792984313329], [-119.36674711223, -82.425077156095, 80.735697097142], [-119.51744434353, -81.023949340848, 82.678407973607], [-119.66814157482, -79.622821525602, 84.62112075742], [-119.81883892532, -78.221692756681, 86.563833541234], [-119.96953615661, -76.820565895109, 88.506544417699], [-120.12023338791, -75.419437126188, 90.449257201512], [-120.2709306192, -74.018308357267, 92.391968077977], [-120.42162785049, -72.617181495695, 94.334682769139], [-120.57232508178, -71.216052726774, 96.277393645604], [-120.72302231308, -69.814923957853, 98.220104522069], [-120.87371954437, -68.413795188932, 100.16281921323], [-121.02441677566, -67.01266832736, 102.1055300897], [-121.17511400696, -65.611539558439, 104.04824096616], [-121.32581123825, -64.210410789518, 105.99095565732], [-121.47650846954, -62.809283927946, 107.93366653379], [-121.62720570083, -61.408157066373, 109.87637741025], [-121.77790317054, -60.007026390104, 111.81908828672], [-121.92860040184, -58.605899528531, 113.76180297788], [-122.07929763313, -57.204772666959, 115.70451385434], [-122.22999486442, -55.80364199069, 117.64722473081], [-122.38069209572, -54.402515129117, 119.58993942197], [-122.53138932701, -53.001388267545, 121.53265029844], [-122.6820865583, -51.600257591276, 123.4753649896], [-122.83278378959, -50.199130729703, 125.41807586606], [-122.98348102089, -48.798003868131, 127.36078674253], [-123.13417825218, -47.396873191862, 129.30349761899], [-123.28487548347, -45.995746330289, 131.24620849546], [-123.43557271476, -44.594619468717, 133.18891937192], [-123.58626994606, -43.193488792447, 135.13163787778], [-123.73696717735, -41.792361930875, 137.07434875425], [-123.88766440864, -40.391235069303, 139.01705963071], [-124.03836163994, -38.990104393033, 140.95977050718], [-124.18905887123, -37.588977531461, 142.90248138364], [-124.33975610252, -36.187846855192, 144.84519226011], [-124.49045333381, -34.786719993619, 146.78791076597], [-124.64115056511, -33.385593132047, 148.73062164243], [-124.7918477964, -31.984462455778, 150.67333251889], [-124.94254502769, -30.583335594205, 152.61604339536], [-125.09324225898, -29.182204917936, 154.55875427182], [-125.24393996711, -27.781081871061, 156.50146514829], [-125.39463719841, -26.379951194791, 158.44418365415], [-125.5453344297, -24.978820518522, 160.38689453061], [-125.69603166099, -23.577697471647, 162.32960540708]], "InstanceCreationTime": ["172855.562000", "172855.468000", "172855.578000", "172855.468000", "172855.578000", "172855.484000", "172855.578000", "172855.484000", "172855.578000", "172855.484000", "172855.578000", "172855.484000", "172855.578000", "172855.484000", "172855.578000", "172855.500000", "172855.578000", "172855.500000", "172855.593000", "172855.500000", "172855.593000", "172855.500000", "172855.593000", "172855.515000", "172855.593000", "172855.515000", "172855.593000", "172855.515000", "172855.593000", "172855.515000", "172855.593000", "172855.531000", "172855.609000", "172855.531000", "172855.609000", "172855.531000", "172855.609000", "172855.531000", "172855.609000", "172855.531000", "172855.609000", "172855.531000", "172855.609000", "172855.531000", "172855.609000", "172855.531000", "172855.609000", "172855.546000", "172855.609000", "172855.546000", "172855.625000", "172855.546000", "172855.625000", "172855.546000", "172855.625000", "172855.546000", "172855.625000", "172855.546000", "172855.625000", "172855.546000", "172855.625000", "172855.546000", "172855.625000", "172855.562000", "172855.640000", "172855.562000", "172855.640000", "172855.562000"], "InstanceNumber": [1, 2, 3, 4, 5, 6, 7, 8, 9, 10, 11, 12, 13, 14, 15, 16, 17, 18, 19, 20, 21, 22, 23, 24, 25, 26, 27, 28, 29, 30, 31, 32, 33, 34, 35, 36, 37, 38, 39, 40, 41, 42, 43, 44, 45, 46, 47, 48, 49, 50, 51, 52, 53, 54, 55, 56, 57, 58, 59, 60, 61, 62, 63, 64, 65, 66, 67, 68], "LargestImagePixelValue": [4094, 4094, 4094, 4093, 4094, 4092, 4094, 4094, 4093, 4094, 4094, 4093, 4094, 4094, 4084, 4090, 4094, 4093, 4090, 4093, 4092, 4092, 4094, 4094, 4094, 4092, 4094, 4092, 4094, 4093, 4092, 4092, 4092, 4092, 4091, 4093, 4092, 4092, 4094, 4093, 4091, 4089, 4094, 4094, 4093, 4088, 4093, 4094, 4094, 4094, 4092, 4094, 4094, 4094, 4093, 4094, 4093, 4094, 4094, 4093, 4094, 4094, 4094, 4093, 4094, 4094, 4094, 4094], "SliceLocation": [-35.272350746934, -32.872349821307, -30.472351553126, -28.072350627499, -25.672349701873, -23.272350876933, -20.872350508064, -18.472350903675, -16.072350753755, -13.672351153109, -11.272351170223, -8.8723509089571, -6.4723508388115, -4.0723507696015, -1.672350875767, 0.72764909043923, 3.1276491074531, 5.5276490906052, 7.927649212681, 10.327649087964, 12.72764896699, 15.127649332116, 17.527648936505, 19.927649862132, 22.327648687072, 24.727649612698, 27.127648437638, 29.527648806506, 31.927649739618, 34.3276480078, 36.727648933427, 39.127648315124, 41.527649671163, 43.927649052861, 46.327648434559, 48.727650904115, 51.127649172296, 53.527648553994, 55.92765102355, 58.327649291731, 60.727647559912, 63.127648070097, 65.527649426136, 67.927647694318, 70.327648189532, 72.727649545571, 75.127647813753, 77.527651396825, 79.927649665006, 82.327647933187, 84.727648428402, 87.127646696583, 89.527644964765, 91.927651635695, 94.327649903876, 96.727648172057, 99.127648667272, 101.52764693545, 103.92764743067, 106.32765187456, 108.72765014275, 111.12765063796, 113.52764890614, 115.92764940136, 118.32764547244, 120.72765214337, 123.12765263859, 125.52764867974], "SmallestImagePixelValue": [1, 0, 0, 0, 0, 0, 1, 0, 1, 0, 0, 0, 1, 1, 0, 1, 1, 0, 0, 1, 0, 6, 2, 1, 0, 0, 0, 4, 2, 2, 0, 2, 6, 0, 0, 5, 0, 1, 11, 0, 8, 1, 2, 0, 1, 0, 2, 3, 1, 2, 2, 0, 0, 0, 0, 0, 0, 1, 0, 0, 0, 0, 0, 1, 0, 2, 0, 0], "WindowCenter": [-358.0, -274.0, -274.0, -328.0, -534.0, -580.0, -550.0, -504.0, -500.0, -556.0, -568.0, -524.0, -546.0, -554.0, -564.0, -506.0, -516.0, -530.0, -470.0, -460.0, -436.0, -390.0, -328.0, -330.0, -280.0, -230.0, -194.0, -170.0, -170.0, -162.0, -212.0, -192.0, -150.0, -140.0, -152.0, -144.0, -144.0, -154.0, -176.0, -170.0, -178.0, -200.0, -188.0, -222.0, -216.0, -224.0, -220.0, -238.0, -230.0, -216.0, -234.0, -248.0, -256.0, -312.0, -300.0, -346.0, -324.0, -344.0, -412.0, -394.0, -432.0, -426.0, -412.0, -434.0, -474.0, -444.0, -482.0, -442.0], "WindowWidth": [5326.0, 6004.0, 5996.0, 5780.0, 5010.0, 4950.0, 4906.0, 4886.0, 4874.0, 4838.0, 4816.0, 4798.0, 4756.0, 4716.0, 4648.0, 4562.0, 4550.0, 4510.0, 4496.0, 4484.0, 4462.0, 4442.0, 4330.0, 4286.0, 4276.0, 4164.0, 4146.0, 4086.0, 4082.0, 4076.0, 4112.0, 4104.0, 4134.0, 4174.0, 4218.0, 4242.0, 4262.0, 4276.0, 4288.0, 4306.0, 4316.0, 4306.0, 4314.0, 4328.0, 4338.0, 4330.0, 4336.0, 4320.0, 4326.0, 4348.0, 4360.0, 4374.0, 4368.0, 4380.0, 4444.0, 4456.0, 4520.0, 4524.0, 4654.0, 4718.0, 4808.0, 4844.0, 4922.0, 4952.0, 4982.0, 5058.0, 5032.0, 5072.0]}}}