{
    "AcquisitionMatrixPE": 96,
    "AcquisitionNumber": 1,
    "AcquisitionTime": "07:30:19.720000",
    "BandwidthPerPixelPhaseEncode": 33.602,
    "BaseResolution": 96,
    "BodyPartExamined": "BRAIN",
    "ConsistencyInfo": "N4_VD11D_LATEST_20110129",
    "ConversionSoftware": "dcm2niix",
    "ConversionSoftwareVersion": "v1.0.20210317",
    "DerivedVendorReportedEchoSpacing": 0.000620003,
    "DeviceSerialNumber": "45239",
    "DwellTime": 2.6e-06,
    "EchoTime": 0.03,
    "EchoTrainLength": 48,
    "EffectiveEchoSpacing": 0.000310001,
    "FlipAngle": 63,
    "ImageComments": "Unaliased MB4/PE3",
    "ImageOrientationPatientDICOM": [
        0.99919,
        0.00291125,
        0.0401243,
        0.0200115,
        0.829262,
        -0.558501
    ],
    "ImageType": [
        "ORIGINAL",
        "PRIMARY",
        "M",
        "ND",
        "NORM",
        "MOSAIC"
    ],
    "ImagingFrequency": 123.193,
    "InPlanePhaseEncodingDirectionDICOM": "COL",
    "InstitutionAddress": "E 24th St. 100,Austin,Southmiddle,US,78712",
    "InstitutionName": "Univ of Texas at Austin",
    "InstitutionalDepartmentName": "IRC",
    "MRAcquisitionType": "2D",
    "MagneticFieldStrength": 3,
    "Manufacturer": "Siemens",
    "ManufacturersModelName": "Skyra",
    "Modality": "MR",
    "MultibandAccelerationFactor": 4,
    "ParallelReductionFactorInPlane": 2,
    "PartialFourier": 1,
    "PatientPosition": "HFS",
    "PercentPhaseFOV": 100,
    "PercentSampling": 100,
    "PhaseEncodingDirection": "j-",
    "PhaseEncodingSteps": 96,
    "PhaseResolution": 1,
    "PixelBandwidth": 2005,
    "ProcedureStepDescription": "Poldrack2^self-scanning",
    "ProtocolName": "Resting State fMRI MBEPI_matrix96_BW2004",
    "PulseSequenceDetails": "%CustomerSeq%\\cmrr_mbep2d_bold",
    "ReceiveCoilActiveElements": "HEA;HEP",
    "ReceiveCoilName": "Head_32",
    "ReconMatrixPE": 96,
    "RefLinesPE": 94,
    "RepetitionTime": 1.16,
    "SAR": 0.101661,
    "ScanOptions": "FS",
    "ScanningSequence": "EP",
    "SequenceName": "epfid2d1_96",
    "SequenceVariant": "SK",
    "SeriesDescription": "Resting State fMRI MBEPI_matrix96_BW2004",
    "SeriesNumber": 9,
    "ShimSetting": [
        -2785,
        8059,
        -15450,
        130,
        -240,
        59,
        241,
        -71
    ],
    "SliceThickness": 2,
    "SliceTiming": [
        0,
        0.5,
        0.9975,
        0.3575,
        0.855,
        0.215,
        0.7125,
        0.0725,
        0.57,
        1.07,
        0.4275,
        0.9275,
        0.285,
        0.785,
        0.1425,
        0.6425,
        0,
        0.5,
        0.9975,
        0.3575,
        0.855,
        0.215,
        0.7125,
        0.0725,
        0.57,
        1.07,
        0.4275,
        0.9275,
        0.285,
        0.785,
        0.1425,
        0.6425,
        0,
        0.5,
        0.9975,
        0.3575,
        0.855,
        0.215,
        0.7125,
        0.0725,
        0.57,
        1.07,
        0.4275,
        0.9275,
        0.285,
        0.785,
        0.1425,
        0.6425,
        0,
        0.5,
        0.9975,
        0.3575,
        0.855,
        0.215,
        0.7125,
        0.0725,
        0.57,
        1.07,
        0.4275,
        0.9275,
        0.285,
        0.785,
        0.1425,
        0.6425
    ],
    "SoftwareVersions": "syngo MR D11",
    "SpacingBetweenSlices": 2.4,
    "StationName": "AWP45239",
    "TaskName": "Resting fmri",
    "TotalReadoutTime": 0.0294501,
    "TxRefAmp": 345.021,
    "WipMemBlock": "e07e5e1e-8bc4-4887-bc9b-324abb9b1fa7||Sequence: VD11D r195; Nov 21 2012 15:36:10 by eja",
    "dcmmeta_affine": [
        [
            -2.3938937187194824,
            0.047944217920303345,
            0.08375882357358932,
            113.08109283447266
        ],
        [
            -0.0069748652167618275,
            1.9867737293243408,
            -1.3412455320358276,
            -69.01024627685547
        ],
        [
            0.09613116085529327,
            1.3380763530731201,
            1.988478183746338,
            -94.89750671386719
        ],
        [
            0.0,
            0.0,
            0.0,
            1.0
        ]
    ],
    "dcmmeta_reorient_transform": [
        [
            0.0,
            -1.0,
            0.0,
            95.0
        ],
        [
            1.0,
            0.0,
            0.0,
            0.0
        ],
        [
            0.0,
            0.0,
            1.0,
            0.0
        ],
        [
            0.0,
            0.0,
            0.0,
            1.0
        ]
    ],
    "dcmmeta_shape": [
        96,
        96,
        64,
        518
    ],
    "dcmmeta_slice_dim": 2,
    "dcmmeta_version": 0.6,
    "global": {
        "const": {
            "AcquisitionMatrix": [
                96,
                0,
                0,
                96
            ],
            "AngioFlag": "N",
            "BitsAllocated": 16,
            "BitsStored": 16,
            "BodyPartExamined": "BRAIN",
            "Columns": 768,
            "EchoNumbers": 1,
            "EchoTime": 30.0,
            "EchoTrainLength": 48,
            "FlipAngle": 63.0,
            "HighBit": 15,
            "ImageOrientationPatient": [
                0.99919045440022,
                0.00291124810884,
                0.04012431270352,
                0.02001149967689,
                0.82926211722997,
                -0.5585014599873
            ],
            "ImagePositionPatient": [
                -938.0933384805,
                -789.6327997258,
                449.51333632942
            ],
            "ImageType": [
                "ORIGINAL",
                "PRIMARY",
                "M",
                "ND",
                "NORM",
                "MOSAIC"
            ],
            "ImagedNucleus": "1H",
            "ImagingFrequency": 123.193397,
            "InPlanePhaseEncodingDirection": "COL",
            "MRAcquisitionType": "2D",
            "MagneticFieldStrength": 3.0,
            "Manufacturer": "SIEMENS",
            "ManufacturerModelName": "Skyra",
            "Modality": "MR",
            "NumberOfAverages": 1.0,
            "NumberOfPhaseEncodingSteps": 96,
            "PercentPhaseFieldOfView": 100.0,
            "PercentSampling": 100.0,
            "PerformedProcedureStepStartTime": "070716.328000",
            "PhotometricInterpretation": "MONOCHROME2",
            "PixelBandwidth": 2005.0,
            "PixelRepresentation": 0,
            "PixelSpacing": [
                2.3958332538605,
                2.3958332538605
            ],
            "ProtocolName": "Resting State fMRI MBEPI_matrix96_BW2004",
            "RepetitionTime": 1160.0,
            "Rows": 768,
            "SAR": 0.10166129228145,
            "SamplesPerPixel": 1,
            "ScanOptions": "FS",
            "ScanningSequence": "EP",
            "SequenceName": "epfid2d1_96",
            "SequenceVariant": "SK",
            "SeriesDescription": "Resting State fMRI MBEPI_matrix96_BW2004",
            "SeriesNumber": 9,
            "SeriesTime": "073103.796000",
            "SliceLocation": -36.112666704222,
            "SliceThickness": 2.0,
            "SmallestImagePixelValue": 0,
            "SoftwareVersions": "syngo MR D11",
            "SpacingBetweenSlices": 2.4000000543122,
            "SpecificCharacterSet": "ISO_IR 100",
            "StudyID": "1",
            "StudyTime": "070716.281000",
            "TransmitCoilName": "Body",
            "VariableFlipAngleFlag": "N",
            "WindowCenterWidthExplanation": "Algo1",
            "dBdt": 0.0
        },
        "slices": {}
    },
    "time": {
        "samples": {
            "AcquisitionNumber": [
                1,
                2,
                3,
                4,
                5,
                6,
                7,
                8,
                9,
                10,
                11,
                12,
                13,
                14,
                15,
                16,
                17,
                18,
                19,
                20,
                21,
                22,
                23,
                24,
                25,
                26,
                27,
                28,
                29,
                30,
                31,
                32,
                33,
                34,
                35,
                36,
                37,
                38,
                39,
                40,
                41,
                42,
                43,
                44,
                45,
                46,
                47,
                48,
                49,
                50,
                51,
                52,
                53,
                54,
                55,
                56,
                57,
                58,
                59,
                60,
                61,
                62,
                63,
                64,
                65,
                66,
                67,
                68,
                69,
                70,
                71,
                72,
                73,
                74,
                75,
                76,
                77,
                78,
                79,
                80,
                81,
                82,
                83,
                84,
                85,
                86,
                87,
                88,
                89,
                90,
                91,
                92,
                93,
                94,
                95,
                96,
                97,
                98,
                99,
                100,
                101,
                102,
                103,
                104,
                105,
                106,
                107,
                108,
                109,
                110,
                111,
                112,
                113,
                114,
                115,
                116,
                117,
                118,
                119,
                120,
                121,
                122,
                123,
                124,
                125,
                126,
                127,
                128,
                129,
                130,
                131,
                132,
                133,
                134,
                135,
                136,
                137,
                138,
                139,
                140,
                141,
                142,
                143,
                144,
                145,
                146,
                147,
                148,
                149,
                150,
                151,
                152,
                153,
                154,
                155,
                156,
                157,
                158,
                159,
                160,
                161,
                162,
                163,
                164,
                165,
                166,
                167,
                168,
                169,
                170,
                171,
                172,
                173,
                174,
                175,
                176,
                177,
                178,
                179,
                180,
                181,
                182,
                183,
                184,
                185,
                186,
                187,
                188,
                189,
                190,
                191,
                192,
                193,
                194,
                195,
                196,
                197,
                198,
                199,
                200,
                201,
                202,
                203,
                204,
                205,
                206,
                207,
                208,
                209,
                210,
                211,
                212,
                213,
                214,
                215,
                216,
                217,
                218,
                219,
                220,
                221,
                222,
                223,
                224,
                225,
                226,
                227,
                228,
                229,
                230,
                231,
                232,
                233,
                234,
                235,
                236,
                237,
                238,
                239,
                240,
                241,
                242,
                243,
                244,
                245,
                246,
                247,
                248,
                249,
                250,
                251,
                252,
                253,
                254,
                255,
                256,
                257,
                258,
                259,
                260,
                261,
                262,
                263,
                264,
                265,
                266,
                267,
                268,
                269,
                270,
                271,
                272,
                273,
                274,
                275,
                276,
                277,
                278,
                279,
                280,
                281,
                282,
                283,
                284,
                285,
                286,
                287,
                288,
                289,
                290,
                291,
                292,
                293,
                294,
                295,
                296,
                297,
                298,
                299,
                300,
                301,
                302,
                303,
                304,
                305,
                306,
                307,
                308,
                309,
                310,
                311,
                312,
                313,
                314,
                315,
                316,
                317,
                318,
                319,
                320,
                321,
                322,
                323,
                324,
                325,
                326,
                327,
                328,
                329,
                330,
                331,
                332,
                333,
                334,
                335,
                336,
                337,
                338,
                339,
                340,
                341,
                342,
                343,
                344,
                345,
                346,
                347,
                348,
                349,
                350,
                351,
                352,
                353,
                354,
                355,
                356,
                357,
                358,
                359,
                360,
                361,
                362,
                363,
                364,
                365,
                366,
                367,
                368,
                369,
                370,
                371,
                372,
                373,
                374,
                375,
                376,
                377,
                378,
                379,
                380,
                381,
                382,
                383,
                384,
                385,
                386,
                387,
                388,
                389,
                390,
                391,
                392,
                393,
                394,
                395,
                396,
                397,
                398,
                399,
                400,
                401,
                402,
                403,
                404,
                405,
                406,
                407,
                408,
                409,
                410,
                411,
                412,
                413,
                414,
                415,
                416,
                417,
                418,
                419,
                420,
                421,
                422,
                423,
                424,
                425,
                426,
                427,
                428,
                429,
                430,
                431,
                432,
                433,
                434,
                435,
                436,
                437,
                438,
                439,
                440,
                441,
                442,
                443,
                444,
                445,
                446,
                447,
                448,
                449,
                450,
                451,
                452,
                453,
                454,
                455,
                456,
                457,
                458,
                459,
                460,
                461,
                462,
                463,
                464,
                465,
                466,
                467,
                468,
                469,
                470,
                471,
                472,
                473,
                474,
                475,
                476,
                477,
                478,
                479,
                480,
                481,
                482,
                483,
                484,
                485,
                486,
                487,
                488,
                489,
                490,
                491,
                492,
                493,
                494,
                495,
                496,
                497,
                498,
                499,
                500,
                501,
                502,
                503,
                504,
                505,
                506,
                507,
                508,
                509,
                510,
                511,
                512,
                513,
                514,
                515,
                516,
                517,
                518
            ],
            "AcquisitionTime": [
                "073019.720000",
                "073048.720000",
                "073049.880000",
                "073051.040000",
                "073052.200000",
                "073053.360000",
                "073054.520000",
                "073055.680000",
                "073056.840000",
                "073058.000000",
                "073059.160000",
                "073100.320000",
                "073101.480000",
                "073102.640000",
                "073103.800000",
                "073104.960000",
                "073106.120000",
                "073107.280000",
                "073108.440000",
                "073109.600000",
                "073110.760000",
                "073111.920000",
                "073113.080000",
                "073114.240000",
                "073115.400000",
                "073116.560000",
                "073117.720000",
                "073118.880000",
                "073120.040000",
                "073121.200000",
                "073122.360000",
                "073123.520000",
                "073124.680000",
                "073125.840000",
                "073127.000000",
                "073128.160000",
                "073129.320000",
                "073130.480000",
                "073131.640000",
                "073132.800000",
                "073133.960000",
                "073135.120000",
                "073136.280000",
                "073137.440000",
                "073138.600000",
                "073139.760000",
                "073140.920000",
                "073142.080000",
                "073143.240000",
                "073144.400000",
                "073145.562500",
                "073146.722500",
                "073147.882500",
                "073149.042500",
                "073150.202500",
                "073151.362500",
                "073152.522500",
                "073153.682500",
                "073154.842500",
                "073156.002500",
                "073157.162500",
                "073158.322500",
                "073159.482500",
                "073200.642500",
                "073201.802500",
                "073202.962500",
                "073204.122500",
                "073205.282500",
                "073206.442500",
                "073207.602500",
                "073208.762500",
                "073209.922500",
                "073211.082500",
                "073212.242500",
                "073213.402500",
                "073214.562500",
                "073215.722500",
                "073216.882500",
                "073218.042500",
                "073219.202500",
                "073220.362500",
                "073221.522500",
                "073222.682500",
                "073223.842500",
                "073225.002500",
                "073226.162500",
                "073227.322500",
                "073228.482500",
                "073229.642500",
                "073230.802500",
                "073231.962500",
                "073233.122500",
                "073234.282500",
                "073235.442500",
                "073236.602500",
                "073237.762500",
                "073238.922500",
                "073240.082500",
                "073241.242500",
                "073242.402500",
                "073243.562500",
                "073244.722500",
                "073245.882500",
                "073247.042500",
                "073248.202500",
                "073249.362500",
                "073250.522500",
                "073251.682500",
                "073252.842500",
                "073254.002500",
                "073255.162500",
                "073256.322500",
                "073257.482500",
                "073258.642500",
                "073259.802500",
                "073300.962500",
                "073302.122500",
                "073303.282500",
                "073304.442500",
                "073305.602500",
                "073306.762500",
                "073307.922500",
                "073309.082500",
                "073310.242500",
                "073311.402500",
                "073312.562500",
                "073313.722500",
                "073314.882500",
                "073316.042500",
                "073317.202500",
                "073318.362500",
                "073319.522500",
                "073320.682500",
                "073321.842500",
                "073323.002500",
                "073324.162500",
                "073325.322500",
                "073326.482500",
                "073327.642500",
                "073328.802500",
                "073329.962500",
                "073331.122500",
                "073332.282500",
                "073333.442500",
                "073334.602500",
                "073335.762500",
                "073336.922500",
                "073338.082500",
                "073339.242500",
                "073340.402500",
                "073341.562500",
                "073342.722500",
                "073343.882500",
                "073345.042500",
                "073346.202500",
                "073347.362500",
                "073348.522500",
                "073349.682500",
                "073350.842500",
                "073352.002500",
                "073353.162500",
                "073354.322500",
                "073355.482500",
                "073356.642500",
                "073357.802500",
                "073358.962500",
                "073400.122500",
                "073401.282500",
                "073402.442500",
                "073403.602500",
                "073404.762500",
                "073405.922500",
                "073407.082500",
                "073408.242500",
                "073409.402500",
                "073410.562500",
                "073411.722500",
                "073412.882500",
                "073414.042500",
                "073415.202500",
                "073416.362500",
                "073417.522500",
                "073418.682500",
                "073419.842500",
                "073421.002500",
                "073422.162500",
                "073423.322500",
                "073424.482500",
                "073425.642500",
                "073426.802500",
                "073427.962500",
                "073429.122500",
                "073430.282500",
                "073431.442500",
                "073432.602500",
                "073433.762500",
                "073434.922500",
                "073436.082500",
                "073437.242500",
                "073438.402500",
                "073439.562500",
                "073440.722500",
                "073441.882500",
                "073443.042500",
                "073444.202500",
                "073445.362500",
                "073446.522500",
                "073447.682500",
                "073448.842500",
                "073450.002500",
                "073451.162500",
                "073452.322500",
                "073453.482500",
                "073454.642500",
                "073455.802500",
                "073456.962500",
                "073458.122500",
                "073459.282500",
                "073500.442500",
                "073501.602500",
                "073502.762500",
                "073503.922500",
                "073505.082500",
                "073506.242500",
                "073507.402500",
                "073508.562500",
                "073509.722500",
                "073510.882500",
                "073512.042500",
                "073513.202500",
                "073514.362500",
                "073515.522500",
                "073516.682500",
                "073517.842500",
                "073519.002500",
                "073520.162500",
                "073521.322500",
                "073522.482500",
                "073523.642500",
                "073524.802500",
                "073525.962500",
                "073527.122500",
                "073528.282500",
                "073529.442500",
                "073530.602500",
                "073531.762500",
                "073532.922500",
                "073534.082500",
                "073535.242500",
                "073536.402500",
                "073537.562500",
                "073538.722500",
                "073539.882500",
                "073541.042500",
                "073542.202500",
                "073543.362500",
                "073544.522500",
                "073545.682500",
                "073546.842500",
                "073548.002500",
                "073549.162500",
                "073550.322500",
                "073551.482500",
                "073552.642500",
                "073553.802500",
                "073554.962500",
                "073556.122500",
                "073557.282500",
                "073558.442500",
                "073559.602500",
                "073600.762500",
                "073601.922500",
                "073603.082500",
                "073604.242500",
                "073605.402500",
                "073606.562500",
                "073607.722500",
                "073608.882500",
                "073610.042500",
                "073611.202500",
                "073612.362500",
                "073613.522500",
                "073614.682500",
                "073615.842500",
                "073617.002500",
                "073618.162500",
                "073619.322500",
                "073620.482500",
                "073621.642500",
                "073622.802500",
                "073623.962500",
                "073625.122500",
                "073626.282500",
                "073627.442500",
                "073628.602500",
                "073629.762500",
                "073630.922500",
                "073632.082500",
                "073633.242500",
                "073634.402500",
                "073635.565000",
                "073636.725000",
                "073637.885000",
                "073639.045000",
                "073640.205000",
                "073641.365000",
                "073642.525000",
                "073643.685000",
                "073644.845000",
                "073646.005000",
                "073647.165000",
                "073648.325000",
                "073649.485000",
                "073650.645000",
                "073651.805000",
                "073652.965000",
                "073654.125000",
                "073655.285000",
                "073656.445000",
                "073657.605000",
                "073658.765000",
                "073659.925000",
                "073701.085000",
                "073702.245000",
                "073703.405000",
                "073704.565000",
                "073705.725000",
                "073706.885000",
                "073708.045000",
                "073709.205000",
                "073710.365000",
                "073711.525000",
                "073712.685000",
                "073713.845000",
                "073715.005000",
                "073716.165000",
                "073717.325000",
                "073718.485000",
                "073719.645000",
                "073720.805000",
                "073721.965000",
                "073723.125000",
                "073724.285000",
                "073725.445000",
                "073726.605000",
                "073727.765000",
                "073728.925000",
