{"AcquisitionMatrixPE": 96, "AcquisitionNumber": 1, "AcquisitionTime": "07:36:17.037500", "BandwidthPerPixelPhaseEncode": 33.602, "BaseResolution": 96, "BodyPartExamined": "BRAIN", "ConsistencyInfo": "N4_VD11D_LATEST_20110129", "ConversionSoftware": "dcm2niix", "ConversionSoftwareVersion": "v1.0.20210317", "DerivedVendorReportedEchoSpacing": 0.000620003, "DeviceSerialNumber": "45239", "DwellTime": 2.6e-06, "EchoTime": 0.03, "EchoTrainLength": 48, "EffectiveEchoSpacing": 0.000310001, "FlipAngle": 63, "ImageComments": "Unaliased MB4/PE3", "ImageOrientationPatientDICOM": [0.999004, 0.0175129, 0.0410439, 0.00941569, 0.816339, -0.577496], "ImageType": ["ORIGINAL", "PRIMARY", "M", "ND", "NORM", "MOSAIC"], "ImagingFrequency": 123.194, "InPlanePhaseEncodingDirectionDICOM": "COL", "InstitutionAddress": "E 24th St. 100,Austin,Southmiddle,US,78712", "InstitutionName": "Univ of Texas at Austin", "InstitutionalDepartmentName": "IRC", "MRAcquisitionType": "2D", "MagneticFieldStrength": 3, "Manufacturer": "Siemens", "ManufacturersModelName": "Skyra", "Modality": "MR", "MultibandAccelerationFactor": 4, "ParallelReductionFactorInPlane": 2, "PartialFourier": 1, "PatientPosition": "HFS", "PercentPhaseFOV": 100, "PercentSampling": 100, "PhaseEncodingDirection": "j-", "PhaseEncodingSteps": 96, "PhaseResolution": 1, "PixelBandwidth": 2005, "ProcedureStepDescription": "Poldrack2^self-scanning", "ProtocolName": "N-back fMRI MBEPI_matrix96_BW200", "PulseSequenceDetails": "%CustomerSeq%\\cmrr_mbep2d_bold", "ReceiveCoilActiveElements": "HEA;HEP", "ReceiveCoilName": "Head_32", "ReconMatrixPE": 96, "RefLinesPE": 94, "RepetitionTime": 1.16, "SAR": 0.0952607, "ScanOptions": "FS", "ScanningSequence": "EP", "SequenceName": "epfid2d1_96", "SequenceVariant": "SK", "SeriesDescription": "N-back fMRI MBEPI_matrix96_BW200", "SeriesNumber": 13, "ShimSetting": [-2784, 8076, -15478, 121, -235, 214, 161, -67], "SliceThickness": 2, "SliceTiming": [0, 0.4975, 0.995, 0.355, 0.855, 0.2125, 0.7125, 0.07, 0.57, 1.0675, 0.4275, 0.925, 0.285, 0.7825, 0.1425, 0.64, 0, 0.4975, 0.995, 0.355, 0.855, 0.2125, 0.7125, 0.07, 0.57, 1.0675, 0.4275, 0.925, 0.285, 0.7825, 0.1425, 0.64, 0, 0.4975, 0.995, 0.355, 0.855, 0.2125, 0.7125, 0.07, 0.57, 1.0675, 0.4275, 0.925, 0.285, 0.7825, 0.1425, 0.64, 0, 0.4975, 0.995, 0.355, 0.855, 0.2125, 0.7125, 0.07, 0.57, 1.0675, 0.4275, 0.925, 0.285, 0.7825, 0.1425, 0.64], "SoftwareVersions": "syngo MR D11", "SpacingBetweenSlices": 2.4, "StationName": "AWP45239", "TaskName": "N-back task", "TotalReadoutTime": 0.0294501, "TxRefAmp": 329.035, "WipMemBlock": "3b7c01ee-f00a-4eb9-8d0c-635c4146d5be||Sequence: VD11D r195; Nov 21 2012 15:36:10 by eja", "dcmmeta_affine": [[-2.393446683883667, 0.022558413445949554, 0.10468649864196777, 112.80169677734375], [-0.04195787012577057, 1.955811858177185, -1.3855383396148682, -67.8174057006836], [0.0983344316482544, 1.3835852146148682, 1.956865906715393, -92.43150329589844], [0.0, 0.0, 0.0, 1.0]], "dcmmeta_reorient_transform": [[0.0, -1.0, 0.0, 95.0], [1.0, 0.0, 0.0, 0.0], [0.0, 0.0, 1.0, 0.0], [0.0, 0.0, 0.0, 1.0]], "dcmmeta_shape": [96, 96, 64, 380], "dcmmeta_slice_dim": 2, "dcmmeta_version": 0.6, "global": {"const": {"AcquisitionMatrix": [96, 0, 0, 96], "AngioFlag": "N", "BitsAllocated": 16, "BitsStored": 16, "BodyPartExamined": "BRAIN", "Columns": 768, "EchoNumbers": 1, "EchoTime": 30.0, "EchoTrainLength": 48, "FlipAngle": 63.0, "HighBit": 15, "ImageOrientationPatient": [0.99900385144985, 0.01751285146007, 0.04104393770222, 0.00941568570594, 0.81633889965841, -0.5774964465407], "ImagePositionPatient": [-926.72244642337, -789.23536338338, 470.85334460139], "ImageType": ["ORIGINAL", "PRIMARY", "M", "ND", "NORM", "MOSAIC"], "ImagedNucleus": "1H", "ImagingFrequency": 123.193523, "InPlanePhaseEncodingDirection": "COL", "MRAcquisitionType": "2D", "MagneticFieldStrength": 3.0, "Manufacturer": "SIEMENS", "ManufacturerModelName": "Skyra", "Modality": "MR", "NumberOfAverages": 1.0, "NumberOfPhaseEncodingSteps": 96, "PercentPhaseFieldOfView": 100.0, "PercentSampling": 100.0, "PerformedProcedureStepStartTime": "070830.765000", "PhotometricInterpretation": "MONOCHROME2", "PixelBandwidth": 2005.0, "PixelRepresentation": 0, "PixelSpacing": [2.3958332538605, 2.3958332538605], "ProtocolName": "N-back fMRI MBEPI_matrix96_BW200", "RepetitionTime": 1160.0, "Rows": 768, "SAR": 0.0952607046154, "SamplesPerPixel": 1, "ScanOptions": "FS", "ScanningSequence": "EP", "SequenceName": "epfid2d1_96", "SequenceVariant": "SK", "SeriesDescription": "N-back fMRI MBEPI_matrix96_BW200", "SeriesNumber": 13, "SeriesTime": "073700.718000", "SliceLocation": -31.293182359465, "SliceThickness": 2.0, "SmallestImagePixelValue": 0, "SoftwareVersions": "syngo MR D11", "SpacingBetweenSlices": 2.4000000286958, "SpecificCharacterSet": "ISO_IR 100", "StudyID": "1", "StudyTime": "070830.734000", "TransmitCoilName": "Body", "VariableFlipAngleFlag": "N", "WindowCenterWidthExplanation": "Algo1", "dBdt": 0.0}, "slices": {}}, "time": {"samples": {"AcquisitionNumber": [1, 2, 3, 4, 5, 6, 7, 8, 9, 10, 11, 12, 13, 14, 15, 16, 17, 18, 19, 20, 21, 22, 23, 24, 25, 26, 27, 28, 29, 30, 31, 32, 33, 34, 35, 36, 37, 38, 39, 40, 41, 42, 43, 44, 45, 46, 47, 48, 49, 50, 51, 52, 53, 54, 55, 56, 57, 58, 59, 60, 61, 62, 63, 64, 65, 66, 67, 68, 69, 70, 71, 72, 73, 74, 75, 76, 77, 78, 79, 80, 81, 82, 83, 84, 85, 86, 87, 88, 89, 90, 91, 92, 93, 94, 95, 96, 97, 98, 99, 100, 101, 102, 103, 104, 105, 106, 107, 108, 109, 110, 111, 112, 113, 114, 115, 116, 117, 118, 119, 120, 121, 122, 123, 124, 125, 126, 127, 128, 129, 130, 131, 132, 133, 134, 135, 136, 137, 138, 139, 140, 141, 142, 143, 144, 145, 146, 147, 148, 149, 150, 151, 152, 153, 154, 155, 156, 157, 158, 159, 160, 161, 162, 163, 164, 165, 166, 167, 168, 169, 170, 171, 172, 173, 174, 175, 176, 177, 178, 179, 180, 181, 182, 183, 184, 185, 186, 187, 188, 189, 190, 191, 192, 193, 194, 195, 196, 197, 198, 199, 200, 201, 202, 203, 204, 205, 206, 207, 208, 209, 210, 211, 212, 213, 214, 215, 216, 217, 218, 219, 220, 221, 222, 223, 224, 225, 226, 227, 228, 229, 230, 231, 232, 233, 234, 235, 236, 237, 238, 239, 240, 241, 242, 243, 244, 245, 246, 247, 248, 249, 250, 251, 252, 253, 254, 255, 256, 257, 258, 259, 260, 261, 262, 263, 264, 265, 266, 267, 268, 269, 270, 271, 272, 273, 274, 275, 276, 277, 278, 279, 280, 281, 282, 283, 284, 285, 286, 287, 288, 289, 290, 291, 292, 293, 294, 295, 296, 297, 298, 299, 300, 301, 302, 303, 304, 305, 306, 307, 308, 309, 310, 311, 312, 313, 314, 315, 316, 317, 318, 319, 320, 321, 322, 323, 324, 325, 326, 327, 328, 329, 330, 331, 332, 333, 334, 335, 336, 337, 338, 339, 340, 341, 342, 343, 344, 345, 346, 347, 348, 349, 350, 351, 352, 353, 354, 355, 356, 357, 358, 359, 360, 361, 362, 363, 364, 365, 366, 367, 368, 369, 370, 371, 372, 373, 374, 375, 376, 377, 378, 379, 380], "AcquisitionTime": ["073617.037500", "073646.037500", "073647.197500", "073648.357500", "073649.517500", "073650.677500", "073651.837500", "073652.997500", "073654.157500", "073655.317500", "073656.477500", "073657.637500", "073658.797500", "073659.957500", "073701.117500", "073702.277500", "073703.437500", "073704.597500", "073705.757500", "073706.917500", "073708.077500", "073709.237500", "073710.397500", "073711.557500", "073712.717500", "073713.877500", "073715.037500", "073716.197500", "073717.357500", "073718.517500", "073719.677500", "073720.837500", "073721.997500", "073723.157500", "073724.317500", "073725.477500", "073726.637500", "073727.797500", "073728.957500", "073730.117500", "073731.277500", "073732.437500", "073733.597500", "073734.757500", "073735.917500", "073737.077500", "073738.237500", "073739.397500", "073740.557500", "073741.717500", "073742.877500", "073744.037500", "073745.197500", "073746.357500", "073747.517500", "073748.677500", "073749.837500", "073750.997500", "073752.157500", "073753.317500", "073754.477500", "073755.637500", "073756.797500", "073757.957500", "073759.117500", "073800.277500", "073801.437500", "073802.597500", "073803.757500", "073804.917500", "073806.077500", "073807.237500", "073808.397500", "073809.557500", "073810.717500", "073811.877500", "073813.037500", "073814.197500", "073815.357500", "073816.517500", "073817.677500", "073818.837500", "073819.997500", "073821.157500", "073822.317500", "073823.477500", "073824.637500", "073825.797500", "073826.957500", "073828.117500", "073829.277500", "073830.437500", "073831.597500", "073832.757500", "073833.917500", "073835.077500", "073836.237500", "073837.397500", "073838.557500", "073839.717500", "073840.877500", "073842.037500", "073843.197500", "073844.357500", "073845.517500", "073846.677500", "073847.837500", "073848.997500", "073850.157500", "073851.317500", "073852.477500", "073853.637500", "073854.797500", "073855.957500", "073857.117500", "073858.277500", "073859.437500", "073900.597500", "073901.757500", "073902.917500", "073904.077500", "073905.237500", "073906.397500", "073907.557500", "073908.717500", "073909.877500", "073911.037500", "073912.197500", "073913.357500", "073914.517500", "073915.677500", "073916.837500", "073917.997500", "073919.157500", "073920.317500", "073921.477500", "073922.637500", "073923.797500", "073924.957500", "073926.117500", "073927.277500", "073928.437500", "073929.597500", "073930.757500", "073931.917500", "073933.077500", "073934.237500", "073935.397500", "073936.557500", "073937.717500", "073938.877500", "073940.037500", "073941.197500", "073942.357500", "073943.517500", "073944.677500", "073945.837500", "073946.997500", "073948.157500", "073949.317500", "073950.477500", "073951.637500", "073952.797500", "073953.957500", "073955.117500", "073956.277500", "073957.437500", "073958.597500", "073959.757500", "074000.917500", "074002.077500", "074003.237500", "074004.397500", "074005.557500", "074006.717500", "074007.877500", "074009.037500", "074010.197500", "074011.357500", "074012.517500", "074013.677500", "074014.837500", "074015.997500", "074017.157500", "074018.317500", "074019.477500", "074020.637500", "074021.797500", "074022.957500", "074024.117500", "074025.277500", "074026.437500", "074027.597500", "074028.757500", "074029.917500", "074031.077500", "074032.237500", "074033.397500", "074034.557500", "074035.717500", "074036.877500", "074038.037500", "074039.197500", "074040.357500", "074041.517500", "074042.677500", "074043.837500", "074044.997500", "074046.157500", "074047.317500", "074048.480000", "074049.640000", "074050.800000", "074051.960000", "074053.120000", "074054.280000", "074055.440000", "074056.600000", "074057.760000", "074058.920000", "074100.080000", "074101.240000", "074102.400000", "074103.560000", "074104.720000", "074105.880000", "074107.040000", "074108.200000", "074109.360000", "074110.520000", "074111.680000", "074112.840000", "074114.000000", "074115.160000", "074116.320000", "074117.480000", "074118.640000", "074119.800000", "074120.960000", "074122.120000", "074123.280000", "074124.440000", "074125.600000", "074126.760000", "074127.920000", "074129.080000", "074130.240000", "074131.400000", "074132.560000", "074133.720000", "074134.880000", "074136.040000", "074137.200000", "074138.360000", "074139.520000", "074140.680000", "074141.840000", "074143.000000", "074144.160000", "074145.320000", "074146.480000", "074147.640000", "074148.800000", "074149.960000", "074151.120000", "074152.280000", "074153.440000", "074154.600000", "074155.760000", "074156.920000", "074158.080000", "074159.240000", "074200.400000", "074201.560000", "074202.720000", "074203.880000", "074205.040000", "074206.200000", "074207.360000", "074208.520000", "074209.680000", "074210.840000", "074212.000000", "074213.160000", "074214.320000", "074215.480000", "074216.640000", "074217.800000", "074218.960000", "074220.120000", "074221.280000", "074222.440000", "074223.600000", "074224.760000", "074225.920000", "074227.080000", "074228.240000", "074229.400000", "074230.560000", "074231.720000", "074232.880000", "074234.040000", "074235.200000", "074236.360000", "074237.520000", "074238.680000", "074239.840000", "074241.000000", "074242.160000", "074243.320000", "074244.480000", "074245.640000", "074246.800000", "074247.960000", "074249.120000", "074250.280000", "074251.440000", "074252.600000", "074253.760000", "074254.920000", "074256.080000", "074257.240000", "074258.400000", "074259.560000", "074300.720000", "074301.880000", "074303.040000", "074304.200000", "074305.360000", "074306.520000", "074307.680000", "074308.840000", "074310.000000", "074311.160000", "074312.320000", "074313.480000", "074314.640000", "074315.800000", "074316.960000", "074318.120000", "074319.280000", "074320.440000", "074321.600000", "074322.760000", "074323.920000", "074325.080000", "074326.240000", "074327.400000", "074328.560000", "074329.720000", "074330.880000", "074332.040000", "074333.200000", "074334.360000", "074335.520000", "074336.680000", "074337.840000", "074339.000000", "074340.160000", "074341.320000", "074342.480000", "074343.640000", "074344.800000", "074345.960000", "074347.120000", "074348.280000", "074349.440000", "074350.600000", "074351.760000", "074352.920000", "074354.080000", "074355.240000", "074356.400000", "074357.560000", "074358.720000", "074359.880000", "074401.040000", "074402.200000", "074403.360000", "074404.520000"], "ContentTime": ["073700.734000", "073708.109000", "073708.109000", "073708.109000", "073708.109000", "073708.125000", "073708.125000", "073713.109000", "073713.109000", "073713.125000", "073713.125000", "073718.109000", "073718.109000", "073718.109000", "073718.109000", "073723.109000", "073723.109000", "073723.109000", "073723.109000", "073728.109000", "073728.125000", "073728.125000", "073728.140000", "073733.109000", "073733.109000", "073733.109000", "073733.109000", "073738.109000", "073738.109000", "073738.109000", "073738.125000", "073743.109000", "073743.109000", "073743.109000", "073743.109000", "073748.109000", "073748.109000", "073748.109000", "073748.125000", "073753.109000", "073753.109000", "073753.109000", "073753.109000", "073758.109000", "073758.109000", "073758.109000", "073758.109000", "073803.109000", "073803.109000", "073803.125000", "073803.125000", "073808.109000", "073808.109000", "073808.125000", "073808.125000", "073813.109000", "073813.109000", "073813.109000", "073813.109000", "073818.109000", "073818.109000", "073818.109000", "073818.109000", "073823.109000", "073823.109000", "073823.109000", "073833.109000", "073833.109000", "073833.109000", "073833.109000", "073833.125000", "073833.125000", "073833.125000", "073833.140000", "073838.109000", "073838.109000", "073838.109000", "073838.109000", "073843.109000", "073843.109000", "073843.109000", "073843.109000", "073848.109000", "073848.109000", "073848.109000", "073848.109000", "073853.109000", "073853.109000", "073853.109000", "073853.109000", "073858.109000", "073858.109000", "073858.109000", "073858.109000", "073903.109000", "073903.109000", "073903.109000", "073903.109000", "073908.109000", "073908.109000", "073908.109000", "073908.109000", "073913.109000", "073913.109000", "073913.109000", "073913.109000", "073918.109000", "073918.109000", "073918.109000", "073918.125000", "073923.109000", "073923.109000", "073923.109000", "073923.109000", "073928.109000", "073928.109000", "073928.109000", "073928.125000", "073933.109000", "073933.109000", "073933.109000", "073933.109000", "073938.109000", "073938.109000", "073938.109000", "073938.125000", "073943.109000", "073943.109000", "073943.109000", "073948.109000", "073948.109000", "073948.109000", "073948.109000", "073953.109000", "073953.109000", "073953.109000", "073953.109000", "073958.109000", "073958.109000", "073958.109000", "073958.109000", "074003.109000", "074003.109000", "074003.109000", "074003.125000", "074008.109000", "074008.109000", "074008.109000", "074008.109000", "074013.109000", "074013.109000", "074013.109000", "074013.125000", "074018.109000", "074018.109000", "074018.109000", "074018.125000", "074023.109000", "074023.109000", "074023.109000", "074023.109000", "074028.109000", "074028.109000", "074028.109000", "074028.109000", "074033.109000", "074033.109000", "074033.109000", "074033.125000", "074038.109000", "074038.109000", "074038.125000", "074038.125000", "074043.109000", "074043.109000", "074043.109000", "074043.109000", "074048.109000", "074048.109000", "074048.109000", "074048.109000", "074053.109000", "074053.109000", "074053.109000", "074053.109000", "074058.109000", "074058.109000", "074058.125000", "074058.125000", "074103.109000", "074103.109000", "074103.125000", "074103.125000", "074108.109000", "074108.109000", "074108.109000", "074108.109000", "074113.109000", "074113.109000", "074113.109000", "074113.109000", "074118.109000", "074118.109000", "074118.125000", "074118.125000", "074123.109000", "074123.109000", "074123.109000", "074123.109000", "074128.109000", "074128.109000", "074128.109000", "074128.109000", "074128.125000", "074133.109000", "074133.125000", "074133.125000", "074138.109000", "074138.109000", "074138.109000", "074138.109000", "074138.125000", "074143.109000", "074143.109000", "074143.109000", "074148.109000", "074148.109000", "074148.109000", "074148.109000", "074153.109000", "074153.109000", "074153.109000", "074153.109000", "074158.109000", "074158.109000", "074158.109000", "074158.109000", "074158.125000", "074203.109000", "074203.109000", "074203.109000", "074203.109000", "074208.109000", "074208.109000", "074208.109000", "074208.109000", "074213.109000", "074213.125000", "074213.125000", "074218.109000", "074218.109000", "074218.109000", "074218.109000", "074223.109000", "074223.109000", "074223.109000", "074223.109000", "074228.109000", "074228.109000", "074228.109000", "074228.140000", "074228.156000", "074233.109000", "074233.109000", "074233.109000", "074238.109000", "074238.109000", "074238.109000", "074238.125000", "074238.125000", "074243.109000", "074243.109000", "074243.125000", "074243.125000", "074248.109000", "074248.109000", "074248.125000", "074248.125000", "074253.109000", "074253.109000", "074253.109000", "074253.109000", "074258.109000", "074258.109000", "074258.109000", "074258.109000", "074303.109000", "074303.109000", "074303.109000", "074303.109000", "074308.109000", "074308.109000", "074308.109000", "074308.109000", "074313.109000", "074313.109000", "074313.109000", "074313.109000", "074313.125000", "074318.109000", "074318.109000", "074318.109000", "074323.109000", "074323.109000", "074323.109000", "074323.109000", "074323.125000", "074328.109000", "074328.109000", "074328.109000", "074328.109000", "074333.109000", "074333.109000", "074333.109000", "074333.109000", "074338.109000", "074338.125000", "074338.125000", "074343.109000", "074343.109000", "074343.109000", "074343.109000", "074348.109000", "074348.109000", "074348.109000", "074348.109000", "074348.125000", "074353.109000", "074353.109000", "074353.109000", "074358.109000", "074358.109000", "074358.125000", "074358.125000", "074403.109000", "074403.109000", "074403.125000", "074403.125000", "074408.109000", "074408.109000", "074408.109000", "074408.125000", "074413.109000", "074413.109000", "074413.109000", "074413.109000", "074418.109000", "074418.109000", "074418.125000", "074418.125000", "074423.109000", "074423.109000", "074423.109000", "074423.109000", "074423.125000", "074428.109000", "074428.109000", "074428.109000", "074428.109000", "074433.109000", "074433.109000", "074433.109000", "074433.156000", "074438.109000", "074438.109000", "074438.109000", "074438.109000", "074443.109000", "074443.109000", "074443.109000", "074443.109000", "074448.109000", "074448.109000", "074448.109000", "074448.109000", "074448.125000", "074452.515000", "074452.515000", "074452.515000", "074452.531000"], "InstanceCreationTime": ["073700.734000", "073708.109000", "073708.109000", "073708.109000", "073708.109000", "073708.125000", "073708.125000", "073713.109000", "073713.109000", "073713.125000", "073713.125000", "073718.109000", "073718.109000", "073718.109000", "073718.109000", "073723.109000", "073723.109000", "073723.109000", "073723.109000", "073728.109000", "073728.125000", "073728.125000", "073728.140000", "073733.109000", "073733.109000", "073733.109000", "073733.109000", "073738.109000", "073738.109000", "073738.109000", "073738.125000", "073743.109000", "073743.109000", "073743.109000", "073743.109000", "073748.109000", "073748.109000", "073748.109000", "073748.125000", "073753.109000", "073753.109000", "073753.109000", "073753.109000", "073758.109000", "073758.109000", "073758.109000", "073758.109000", "073803.109000", "073803.109000", "073803.125000", "073803.125000", "073808.109000", "073808.109000", "073808.125000", "073808.125000", "073813.109000", "073813.109000", "073813.109000", "073813.109000", "073818.109000", "073818.109000", "073818.109000", "073818.109000", "073823.109000", "073823.109000", "073823.109000", "073833.109000", "073833.109000", "073833.109000", "073833.109000", "073833.125000", "073833.125000", "073833.125000", "073833.140000", "073838.109000", "073838.109000", "073838.109000", "073838.109000", "073843.109000", "073843.109000", "073843.109000", "073843.109000", "073848.109000", "073848.109000", "073848.109000", "073848.109000", "073853.109000", "073853.109000", "073853.109000", "073853.109000", "073858.109000", "073858.109000", "073858.109000", "073858.109000", "073903.109000", "073903.109000", "073903.109000", "073903.109000", "073908.109000", "073908.109000", "073908.109000", "073908.109000", "073913.109000", "073913.109000", "073913.109000", "073913.109000", "073918.109000", "073918.109000", "073918.109000", "073918.125000", "073923.109000", "073923.109000", "073923.109000", "073923.109000", "073928.109000", "073928.109000", "073928.109000", "073928.125000", "073933.109000", "073933.109000", "073933.109000", "073933.109000", "073938.109000", "073938.109000", "073938.109000", "073938.125000", "073943.109000", "073943.109000", "073943.109000", "073948.109000", "073948.109000", "073948.109000", "073948.109000", "073953.109000", "073953.109000", "073953.109000", "073953.109000", "073958.109000", "073958.109000", "073958.109000", "073958.109000", "074003.109000", "074003.109000", "074003.109000", "074003.125000", "074008.109000", "074008.109000", "074008.109000", "074008.109000", "074013.109000", "074013.109000", "074013.109000", "074013.125000", "074018.109000", "074018.109000", "074018.109000", "074018.125000", "074023.109000", "074023.109000", "074023.109000", "074023.109000", "074028.109000", "074028.109000", "074028.109000", "074028.109000", "074033.109000", "074033.109000", "074033.109000", "074033.125000", "074038.109000", "074038.109000", "074038.125000", "074038.125000", "074043.109000", "074043.109000", "074043.109000", "074043.109000", "074048.109000", "074048.109000", "074048.109000", "074048.109000", "074053.109000", "074053.109000", "074053.109000", "074053.109000", "074058.109000", "074058.109000", "074058.125000", "074058.125000", "074103.109000", "074103.109000", "074103.125000", "074103.125000", "074108.109000", "074108.109000", "074108.109000", "074108.109000", "074113.109000", "074113.109000", "074113.109000", "074113.109000", "074118.109000", "074118.109000", "074118.125000", "074118.125000", "074123.109000", "074123.109000", "074123.109000", "074123.109000", "074128.109000", "074128.109000", "074128.109000", "074128.109000", "074128.125000", "074133.109000", "074133.125000", "074133.125000", "074138.109000", "074138.109000", "074138.109000", "074138.109000", "074138.125000", "074143.109000", "074143.109000", "074143.109000", "074148.109000", "074148.109000", "074148.109000", "074148.109000", "074153.109000", "074153.109000", "074153.109000", "074153.109000", "074158.109000", "074158.109000", "074158.109000", "074158.109000", "074158.125000", "074203.109000", "074203.109000", "074203.109000", "074203.109000", "074208.109000", "074208.109000", "074208.109000", "074208.109000", "074213.109000", "074213.125000", "074213.125000", "074218.109000", "074218.109000", "074218.109000", "074218.109000", "074223.109000", "074223.109000", "074223.109000", "074223.109000", "074228.109000", "074228.109000", "074228.109000", "074228.140000", "074228.156000", "074233.109000", "074233.109000", "074233.109000", "074238.109000", "074238.109000", "074238.109000", "074238.125000", "074238.125000", "074243.109000", "074243.109000", "074243.125000", "074243.125000", "074248.109000", "074248.109000", "074248.125000", "074248.125000", "074253.109000", "074253.109000", "074253.109000", "074253.109000", "074258.109000", "074258.109000", "074258.109000", "074258.109000", "074303.109000", "074303.109000", "074303.109000", "074303.109000", "074308.109000", "074308.109000", "074308.109000", "074308.109000", "074313.109000", "074313.109000", "074313.109000", "074313.109000", "074313.125000", "074318.109000", "074318.109000", "074318.109000", "074323.109000", "074323.109000", "074323.109000", "074323.109000", "074323.125000", "074328.109000", "074328.109000", "074328.109000", "074328.109000", "074333.109000", "074333.109000", "074333.109000", "074333.109000", "074338.109000", "074338.125000", "074338.125000", "074343.109000", "074343.109000", "074343.109000", "074343.109000", "074348.109000", "074348.109000", "074348.109000", "074348.109000", "074348.125000", "074353.109000", "074353.109000", "074353.109000", "074358.109000", "074358.109000", "074358.125000", "074358.125000", "074403.109000", "074403.109000", "074403.125000", "074403.125000", "074408.109000", "074408.109000", "074408.109000", "074408.125000", "074413.109000", "074413.109000", "074413.109000", "074413.109000", "074418.109000", "074418.109000", "074418.125000", "074418.125000", "074423.109000", "074423.109000", "074423.109000", "074423.109000", "074423.125000", "074428.109000", "074428.109000", "074428.109000", "074428.109000", "074433.109000", "074433.109000", "074433.109000", "074433.156000", "074438.109000", "074438.109000", "074438.109000", "074438.109000", "074443.109000", "074443.109000", "074443.109000", "074443.109000", "074448.109000", "074448.109000", "074448.109000", "074448.109000", "074448.125000", "074452.515000", "074452.515000", "074452.515000", "074452.531000"], "InstanceNumber": [1, 2, 3, 4, 5, 6, 7, 8, 9, 10, 11, 12, 13, 14, 15, 16, 17, 18, 19, 20, 21, 22, 23, 24, 25, 26, 27, 28, 29, 30, 31, 32, 33, 34, 35, 36, 37, 38, 39, 40, 41, 42, 43, 44, 45, 46, 47, 48, 49, 50, 51, 52, 53, 54, 55, 56, 57, 58, 59, 60, 61, 62, 63, 64, 65, 66, 67, 68, 69, 70, 71, 72, 73, 74, 75, 76, 77, 78, 79, 80, 81, 82, 83, 84, 85, 86, 87, 88, 89, 90, 91, 92, 93, 94, 95, 96, 97, 98, 99, 100, 101, 102, 103, 104, 105, 106, 107, 108, 109, 110, 111, 112, 113, 114, 115, 116, 117, 118, 119, 120, 121, 122, 123, 124, 125, 126, 127, 128, 129, 130, 131, 132, 133, 134, 135, 136, 137, 138, 139, 140, 141, 142, 143, 144, 145, 146, 147, 148, 149, 150, 151, 152, 153, 154, 155, 156, 157, 158, 159, 160, 161, 162, 163, 164, 165, 166, 167, 168, 169, 170, 171, 172, 173, 174, 175, 176, 177, 178, 179, 180, 181, 182, 183, 184, 185, 186, 187, 188, 189, 190, 191, 192, 193, 194, 195, 196, 197, 198, 199, 200, 201, 202, 203, 204, 205, 206, 207, 208, 209, 210, 211, 212, 213, 214, 215, 216, 217, 218, 219, 220, 221, 222, 223, 224, 225, 226, 227, 228, 229, 230, 231, 232, 233, 234, 235, 236, 237, 238, 239, 240, 241, 242, 243, 244, 245, 246, 247, 248, 249, 250, 251, 252, 253, 254, 255, 256, 257, 258, 259, 260, 261, 262, 263, 264, 265, 266, 267, 268, 269, 270, 271, 272, 273, 274, 275, 276, 277, 278, 279, 280, 281, 282, 283, 284, 285, 286, 287, 288, 289, 290, 291, 292, 293, 294, 295, 296, 297, 298, 299, 300, 301, 302, 303, 304, 305, 306, 307, 308, 309, 310, 311, 312, 313, 314, 315, 316, 317, 318, 319, 320, 321, 322, 323, 324, 325, 326, 327, 328, 329, 330, 331, 332, 333, 334, 335, 336, 337, 338, 339, 340, 341, 342, 343, 344, 345, 346, 347, 348, 349, 350, 351, 352, 353, 354, 355, 356, 357, 358, 359, 360, 361, 362, 363, 364, 365, 366, 367, 368, 369, 370, 371, 372, 373, 374, 375, 376, 377, 378, 379, 380], "LargestImagePixelValue": [27285, 24770, 24652, 24616, 24599, 24365, 24384, 29103, 24687, 28659, 24371, 26983, 24435, 26895, 24307, 30089, 24864, 28908, 24487, 24603, 26152, 24271, 25137, 24441, 27071, 24277, 24355, 28540, 26080, 24385, 24490, 24860, 24460, 24399, 24349, 24814, 28134, 24546, 26951, 24438, 26085, 24519, 24522, 25841, 24845, 26641, 24387, 27004, 24840, 24749, 26009, 24608, 24515, 24752, 29988, 24585, 24782, 24748, 24462, 24510, 24414, 27899, 26631, 24677, 24285, 24636, 30336, 26352, 27597, 24561, 24571, 28840, 24702, 25445, 24433, 24634, 24660, 24729, 27463, 25715, 24522, 30522, 25374, 26669, 24508, 24763, 28206, 25669, 25492, 24403, 24594, 29115, 27135, 27840, 24637, 24786, 28241, 24618, 27934, 24486, 27695, 24583, 24550, 24612, 24692, 26701, 24509, 26861, 24835, 24883, 24759, 24594, 25095, 24738, 25384, 24392, 26565, 24609, 27309, 24972, 28015, 24660, 27397, 24693, 24856, 25072, 28267, 24658, 24692, 27307, 24537, 27285, 24866, 30716, 24459, 26000, 24763, 24983, 29414, 24612, 26475, 24648, 24744, 25740, 24774, 24748, 24687, 28437, 25743, 27161, 24956, 24981, 25048, 29170, 24411, 24641, 25739, 24784, 28818, 27808, 25794, 30265, 26772, 29230, 24842, 24646, 24621, 25019, 24734, 24681, 24666, 25014, 24867, 24726, 26270, 24778, 28568, 28552, 25771, 24732, 24720, 27330, 24602, 30787, 24766, 26527, 24882, 24739, 26808, 24826, 27261, 24661, 24983, 24868, 24978, 28525, 24946, 26288, 25014, 24841, 27747, 24900, 24738, 24756, 26588, 25068, 24719, 27099, 24957, 26779, 25743, 25002, 24775, 24946, 28807, 24958, 28197, 24924, 28694, 25030, 26827, 25818, 27472, 24804, 24951, 28708, 24975, 25133, 24816, 24820, 25039, 28221, 24873, 26014, 24898, 27645, 24904, 25622, 24811, 24957, 25084, 25110, 26890, 24829, 26593, 25145, 27002, 24870, 27838, 25035, 26915, 28109, 25135, 28459, 26454, 30287, 25133, 30253, 28042, 24647, 27646, 24972, 25004, 24834, 24697, 26469, 24846, 25416, 25302, 24965, 31517, 28039, 25623