{"AcquisitionMatrixPE": 96, "AcquisitionNumber": 1, "AcquisitionTime": "07:50:22.292500", "BandwidthPerPixelPhaseEncode": 33.602, "BaseResolution": 96, "BodyPartExamined": "BRAIN", "ConsistencyInfo": "N4_VD11D_LATEST_20110129", "ConversionSoftware": "dcm2niix", "ConversionSoftwareVersion": "v1.0.20210317", "DerivedVendorReportedEchoSpacing": 0.000620003, "DeviceSerialNumber": "45239", "DwellTime": 2.6e-06, "EchoTime": 0.03, "EchoTrainLength": 48, "EffectiveEchoSpacing": 0.000310001, "FlipAngle": 63, "ImageComments": "Unaliased MB4/PE3", "ImageOrientationPatientDICOM": [0.998925, 0.0174074, 0.0429737, 0.00958926, 0.829243, -0.558806], "ImageType": ["ORIGINAL", "PRIMARY", "M", "ND", "NORM", "MOSAIC"], "ImagingFrequency": 123.193, "InPlanePhaseEncodingDirectionDICOM": "COL", "InstitutionAddress": "E 24th St. 100,Austin,Southmiddle,US,78712", "InstitutionName": "Univ of Texas at Austin", "InstitutionalDepartmentName": "IRC", "MRAcquisitionType": "2D", "MagneticFieldStrength": 3, "Manufacturer": "Siemens", "ManufacturersModelName": "Skyra", "Modality": "MR", "MultibandAccelerationFactor": 4, "ParallelReductionFactorInPlane": 2, "PartialFourier": 1, "PatientPosition": "HFS", "PercentPhaseFOV": 100, "PercentSampling": 100, "PhaseEncodingDirection": "j-", "PhaseEncodingSteps": 96, "PhaseResolution": 1, "PixelBandwidth": 2005, "ProcedureStepDescription": "Poldrack2^self-scanning", "ProtocolName": "N-back fMRI MBEPI_matrix96_BW200", "PulseSequenceDetails": "%CustomerSeq%\\cmrr_mbep2d_bold", "ReceiveCoilActiveElements": "HEA;HEP", "ReceiveCoilName": "Head_32", "ReconMatrixPE": 96, "RefLinesPE": 94, "RepetitionTime": 1.16, "SAR": 0.092104, "ScanOptions": "FS", "ScanningSequence": "EP", "SequenceName": "epfid2d1_96", "SequenceVariant": "SK", "SeriesDescription": "N-back fMRI MBEPI_matrix96_BW200", "SeriesNumber": 13, "ShimSetting": [-2783, 8074, -15425, 168, -212, 128, 211, -88], "SliceThickness": 2, "SliceTiming": [0, 0.5, 0.9975, 0.3575, 0.855, 0.215, 0.7125, 0.0725, 0.57, 1.07, 0.4275, 0.9275, 0.285, 0.785, 0.1425, 0.6425, 0, 0.5, 0.9975, 0.3575, 0.855, 0.215, 0.7125, 0.0725, 0.57, 1.07, 0.4275, 0.9275, 0.285, 0.785, 0.1425, 0.6425, 0, 0.5, 0.9975, 0.3575, 0.855, 0.215, 0.7125, 0.0725, 0.57, 1.07, 0.4275, 0.9275, 0.285, 0.785, 0.1425, 0.6425, 0, 0.5, 0.9975, 0.3575, 0.855, 0.215, 0.7125, 0.0725, 0.57, 1.07, 0.4275, 0.9275, 0.285, 0.785, 0.1425, 0.6425], "SoftwareVersions": "syngo MR D11", "SpacingBetweenSlices": 2.4, "StationName": "AWP45239", "TaskName": "N-back task", "TotalReadoutTime": 0.0294501, "TxRefAmp": 330.85, "WipMemBlock": "09544da9-44e0-40a2-9fee-17cc94e7d0df||Sequence: VD11D r195; Nov 21 2012 15:36:10 by eja", "dcmmeta_affine": [[-2.393256664276123, 0.02297426573932171, 0.10887114703655243, 114.63727569580078], [-0.04170531779527664, 1.9867277145385742, -1.3406813144683838, -67.02193450927734], [0.10295770317316055, 1.3388062715530396, 1.9876419305801392, -102.25394439697266], [0.0, 0.0, 0.0, 1.0]], "dcmmeta_reorient_transform": [[0.0, -1.0, 0.0, 95.0], [1.0, 0.0, 0.0, 0.0], [0.0, 0.0, 1.0, 0.0], [0.0, 0.0, 0.0, 1.0]], "dcmmeta_shape": [96, 96, 64, 380], "dcmmeta_slice_dim": 2, "dcmmeta_version": 0.6, "global": {"const": {"AcquisitionMatrix": [96, 0, 0, 96], "AngioFlag": "N", "BitsAllocated": 16, "BitsStored": 16, "BodyPartExamined": "BRAIN", "Columns": 768, "EchoNumbers": 1, "EchoTime": 30.0, "EchoTrainLength": 48, "FlipAngle": 63.0, "HighBit": 15, "ImageOrientationPatient": [0.9989245448558, 0.01740743743597, 0.04297365246929, 0.00958925910179, 0.82924288783588, -0.5588061194041], "ImagePositionPatient": [-928.67341788893, -803.27068468252, 440.17777324116], "ImageType": ["ORIGINAL", "PRIMARY", "M", "ND", "NORM", "MOSAIC"], "ImagedNucleus": "1H", "ImagingFrequency": 123.193391, "InPlanePhaseEncodingDirection": "COL", "MRAcquisitionType": "2D", "MagneticFieldStrength": 3.0, "Manufacturer": "SIEMENS", "ManufacturerModelName": "Skyra", "Modality": "MR", "NumberOfAverages": 1.0, "NumberOfPhaseEncodingSteps": 96, "PercentPhaseFieldOfView": 100.0, "PercentSampling": 100.0, "PerformedProcedureStepStartTime": "070925.781000", "PhotometricInterpretation": "MONOCHROME2", "PixelBandwidth": 2005.0, "PixelRepresentation": 0, "PixelSpacing": [2.3958332538605, 2.3958332538605], "ProtocolName": "N-back fMRI MBEPI_matrix96_BW200", "RepetitionTime": 1160.0, "Rows": 768, "SAR": 0.09210397991645, "SamplesPerPixel": 1, "ScanOptions": "FS", "ScanningSequence": "EP", "SequenceName": "epfid2d1_96", "SequenceVariant": "SK", "SeriesDescription": "N-back fMRI MBEPI_matrix96_BW200", "SeriesNumber": 13, "SeriesTime": "075106.250000", "SliceLocation": -42.045201039761, "SliceThickness": 2.0, "SmallestImagePixelValue": 0, "SoftwareVersions": "syngo MR D11", "SpacingBetweenSlices": 2.3999999566865, "SpecificCharacterSet": "ISO_IR 100", "StudyID": "1", "StudyTime": "070925.734000", "TransmitCoilName": "Body", "VariableFlipAngleFlag": "N", "WindowCenterWidthExplanation": "Algo1", "dBdt": 0.0}, "slices": {}}, "time": {"samples": {"AcquisitionNumber": [1, 2, 3, 4, 5, 6, 7, 8, 9, 10, 11, 12, 13, 14, 15, 16, 17, 18, 19, 20, 21, 22, 23, 24, 25, 26, 27, 28, 29, 30, 31, 32, 33, 34, 35, 36, 37, 38, 39, 40, 41, 42, 43, 44, 45, 46, 47, 48, 49, 50, 51, 52, 53, 54, 55, 56, 57, 58, 59, 60, 61, 62, 63, 64, 65, 66, 67, 68, 69, 70, 71, 72, 73, 74, 75, 76, 77, 78, 79, 80, 81, 82, 83, 84, 85, 86, 87, 88, 89, 90, 91, 92, 93, 94, 95, 96, 97, 98, 99, 100, 101, 102, 103, 104, 105, 106, 107, 108, 109, 110, 111, 112, 113, 114, 115, 116, 117, 118, 119, 120, 121, 122, 123, 124, 125, 126, 127, 128, 129, 130, 131, 132, 133, 134, 135, 136, 137, 138, 139, 140, 141, 142, 143, 144, 145, 146, 147, 148, 149, 150, 151, 152, 153, 154, 155, 156, 157, 158, 159, 160, 161, 162, 163, 164, 165, 166, 167, 168, 169, 170, 171, 172, 173, 174, 175, 176, 177, 178, 179, 180, 181, 182, 183, 184, 185, 186, 187, 188, 189, 190, 191, 192, 193, 194, 195, 196, 197, 198, 199, 200, 201, 202, 203, 204, 205, 206, 207, 208, 209, 210, 211, 212, 213, 214, 215, 216, 217, 218, 219, 220, 221, 222, 223, 224, 225, 226, 227, 228, 229, 230, 231, 232, 233, 234, 235, 236, 237, 238, 239, 240, 241, 242, 243, 244, 245, 246, 247, 248, 249, 250, 251, 252, 253, 254, 255, 256, 257, 258, 259, 260, 261, 262, 263, 264, 265, 266, 267, 268, 269, 270, 271, 272, 273, 274, 275, 276, 277, 278, 279, 280, 281, 282, 283, 284, 285, 286, 287, 288, 289, 290, 291, 292, 293, 294, 295, 296, 297, 298, 299, 300, 301, 302, 303, 304, 305, 306, 307, 308, 309, 310, 311, 312, 313, 314, 315, 316, 317, 318, 319, 320, 321, 322, 323, 324, 325, 326, 327, 328, 329, 330, 331, 332, 333, 334, 335, 336, 337, 338, 339, 340, 341, 342, 343, 344, 345, 346, 347, 348, 349, 350, 351, 352, 353, 354, 355, 356, 357, 358, 359, 360, 361, 362, 363, 364, 365, 366, 367, 368, 369, 370, 371, 372, 373, 374, 375, 376, 377, 378, 379, 380], "AcquisitionTime": ["075022.292500", "075051.290000", "075052.450000", "075053.610000", "075054.770000", "075055.930000", "075057.090000", "075058.250000", "075059.410000", "075100.570000", "075101.730000", "075102.890000", "075104.050000", "075105.210000", "075106.370000", "075107.530000", "075108.690000", "075109.850000", "075111.010000", "075112.170000", "075113.330000", "075114.490000", "075115.650000", "075116.810000", "075117.970000", "075119.130000", "075120.290000", "075121.450000", "075122.610000", "075123.770000", "075124.932500", "075126.092500", "075127.252500", "075128.412500", "075129.572500", "075130.732500", "075131.892500", "075133.052500", "075134.212500", "075135.372500", "075136.532500", "075137.692500", "075138.852500", "075140.012500", "075141.172500", "075142.332500", "075143.492500", "075144.652500", "075145.812500", "075146.972500", "075148.132500", "075149.292500", "075150.452500", "075151.612500", "075152.772500", "075153.932500", "075155.092500", "075156.252500", "075157.412500", "075158.572500", "075159.732500", "075200.892500", "075202.052500", "075203.212500", "075204.372500", "075205.532500", "075206.692500", "075207.852500", "075209.012500", "075210.172500", "075211.332500", "075212.492500", "075213.652500", "075214.812500", "075215.972500", "075217.132500", "075218.292500", "075219.452500", "075220.612500", "075221.772500", "075222.932500", "075224.092500", "075225.252500", "075226.412500", "075227.572500", "075228.732500", "075229.892500", "075231.052500", "075232.212500", "075233.372500", "075234.532500", "075235.692500", "075236.852500", "075238.012500", "075239.172500", "075240.332500", "075241.492500", "075242.652500", "075243.812500", "075244.972500", "075246.132500", "075247.292500", "075248.452500", "075249.612500", "075250.772500", "075251.932500", "075253.092500", "075254.252500", "075255.412500", "075256.572500", "075257.732500", "075258.892500", "075300.052500", "075301.212500", "075302.372500", "075303.532500", "075304.692500", "075305.852500", "075307.012500", "075308.172500", "075309.332500", "075310.492500", "075311.652500", "075312.812500", "075313.972500", "075315.132500", "075316.292500", "075317.452500", "075318.612500", "075319.772500", "075320.932500", "075322.092500", "075323.252500", "075324.412500", "075325.572500", "075326.732500", "075327.892500", "075329.052500", "075330.212500", "075331.372500", "075332.532500", "075333.692500", "075334.852500", "075336.012500", "075337.172500", "075338.332500", "075339.492500", "075340.652500", "075341.812500", "075342.972500", "075344.132500", "075345.292500", "075346.452500", "075347.612500", "075348.772500", "075349.932500", "075351.092500", "075352.252500", "075353.412500", "075354.572500", "075355.732500", "075356.892500", "075358.052500", "075359.212500", "075400.372500", "075401.532500", "075402.692500", "075403.852500", "075405.012500", "075406.172500", "075407.332500", "075408.492500", "075409.652500", "075410.812500", "075411.972500", "075413.132500", "075414.292500", "075415.452500", "075416.612500", "075417.772500", "075418.932500", "075420.092500", "075421.252500", "075422.412500", "075423.572500", "075424.732500", "075425.892500", "075427.052500", "075428.212500", "075429.372500", "075430.532500", "075431.692500", "075432.852500", "075434.012500", "075435.172500", "075436.332500", "075437.492500", "075438.652500", "075439.812500", "075440.972500", "075442.132500", "075443.292500", "075444.452500", "075445.612500", "075446.772500", "075447.932500", "075449.092500", "075450.252500", "075451.412500", "075452.572500", "075453.732500", "075454.892500", "075456.052500", "075457.212500", "075458.372500", "075459.532500", "075500.692500", "075501.852500", "075503.012500", "075504.172500", "075505.332500", "075506.492500", "075507.652500", "075508.812500", "075509.972500", "075511.132500", "075512.292500", "075513.452500", "075514.612500", "075515.772500", "075516.932500", "075518.092500", "075519.252500", "075520.412500", "075521.572500", "075522.732500", "075523.892500", "075525.052500", "075526.212500", "075527.372500", "075528.532500", "075529.692500", "075530.852500", "075532.012500", "075533.172500", "075534.332500", "075535.492500", "075536.652500", "075537.812500", "075538.972500", "075540.132500", "075541.292500", "075542.452500", "075543.612500", "075544.772500", "075545.932500", "075547.092500", "075548.252500", "075549.412500", "075550.572500", "075551.732500", "075552.892500", "075554.052500", "075555.212500", "075556.372500", "075557.532500", "075558.692500", "075559.852500", "075601.012500", "075602.172500", "075603.332500", "075604.492500", "075605.652500", "075606.812500", "075607.972500", "075609.132500", "075610.292500", "075611.452500", "075612.612500", "075613.772500", "075614.935000", "075616.095000", "075617.255000", "075618.415000", "075619.575000", "075620.735000", "075621.895000", "075623.055000", "075624.215000", "075625.375000", "075626.535000", "075627.695000", "075628.855000", "075630.015000", "075631.175000", "075632.335000", "075633.495000", "075634.655000", "075635.815000", "075636.975000", "075638.135000", "075639.295000", "075640.455000", "075641.615000", "075642.775000", "075643.935000", "075645.095000", "075646.255000", "075647.415000", "075648.575000", "075649.735000", "075650.895000", "075652.055000", "075653.215000", "075654.375000", "075655.535000", "075656.695000", "075657.855000", "075659.015000", "075700.175000", "075701.335000", "075702.495000", "075703.655000", "075704.815000", "075705.975000", "075707.135000", "075708.295000", "075709.455000", "075710.615000", "075711.775000", "075712.935000", "075714.095000", "075715.255000", "075716.415000", "075717.575000", "075718.735000", "075719.895000", "075721.055000", "075722.215000", "075723.375000", "075724.535000", "075725.695000", "075726.855000", "075728.015000", "075729.175000", "075730.335000", "075731.495000", "075732.655000", "075733.815000", "075734.975000", "075736.135000", "075737.295000", "075738.455000", "075739.615000", "075740.775000", "075741.935000", "075743.095000", "075744.255000", "075745.415000", "075746.575000", "075747.735000", "075748.895000", "075750.055000", "075751.215000", "075752.375000", "075753.535000", "075754.695000", "075755.855000", "075757.015000", "075758.175000", "075759.335000", "075800.495000", "075801.655000", "075802.815000", "075803.975000", "075805.135000", "075806.295000", "075807.455000", "075808.615000", "075809.775000"], "ContentTime": ["075106.250000", "075112.750000", "075112.750000", "075112.750000", "075112.750000", "075112.765000", "075117.750000", "075117.750000", "075117.750000", "075117.750000", "075117.765000", "075122.750000", "075122.750000", "075122.750000", "075127.750000", "075127.750000", "075127.750000", "075127.750000", "075127.765000", "075132.750000", "075132.750000", "075132.750000", "075132.765000", "075137.750000", "075137.750000", "075137.750000", "075137.750000", "075142.750000", "075142.750000", "075142.750000", "075142.750000", "075147.750000", "075147.750000", "075147.750000", "075147.765000", "075152.750000", "075152.750000", "075152.750000", "075152.765000", "075157.750000", "075157.750000", "075157.750000", "075157.765000", "075202.750000", "075202.750000", "075202.750000", "075202.765000", "075207.750000", "075207.750000", "075207.750000", "075207.750000", "075212.750000", "075212.750000", "075212.750000", "075212.750000", "075217.750000", "075217.750000", "075217.750000", "075217.750000", "075222.750000", "075222.750000", "075222.750000", "075227.750000", "075227.750000", "075227.750000", "075227.750000", "075232.750000", "075232.750000", "075232.750000", "075232.765000", "075237.750000", "075237.750000", "075237.750000", "075237.750000", "075242.750000", "075242.750000", "075242.750000", "075242.765000", "075247.750000", "075247.750000", "075247.750000", "075247.750000", "075252.750000", "075252.750000", "075252.750000", "075252.750000", "075257.750000", "075257.750000", "075257.750000", "075257.750000", "075302.750000", "075302.750000", "075302.750000", "075302.750000", "075307.750000", "075307.750000", "075307.750000", "075307.750000", "075312.750000", "075312.750000", "075312.750000", "075312.750000", "075317.750000", "075317.750000", "075317.750000", "075317.750000", "075322.750000", "075322.750000", "075322.750000", "075322.750000", "075327.750000", "075327.750000", "075327.750000", "075327.750000", "075332.750000", "075332.750000", "075332.750000", "075332.750000", "075337.750000", "075337.750000", "075337.750000", "075342.750000", "075342.750000", "075342.750000", "075342.750000", "075347.750000", "075347.750000", "075347.750000", "075347.750000", "075352.750000", "075352.750000", "075352.750000", "075352.750000", "075357.750000", "075357.750000", "075357.750000", "075357.750000", "075402.750000", "075402.750000", "075402.750000", "075402.750000", "075407.750000", "075407.750000", "075407.750000", "075407.750000", "075412.750000", "075412.750000", "075412.750000", "075412.750000", "075417.750000", "075417.750000", "075417.750000", "075417.750000", "075422.750000", "075422.750000", "075422.750000", "075422.750000", "075427.750000", "075427.750000", "075427.750000", "075427.750000", "075432.750000", "075432.750000", "075432.750000", "075432.750000", "075437.750000", "075437.750000", "075437.750000", "075437.750000", "075442.750000", "075442.750000", "075442.750000", "075442.750000", "075447.750000", "075447.750000", "075447.765000", "075447.765000", "075452.750000", "075452.750000", "075452.750000", "075452.750000", "075457.750000", "075457.750000", "075457.750000", "075457.750000", "075502.750000", "075502.750000", "075502.750000", "075502.750000", "075507.750000", "075507.750000", "075507.750000", "075507.750000", "075512.750000", "075512.750000", "075512.750000", "075512.750000", "075512.750000", "075517.750000", "075517.750000", "075517.750000", "075522.750000", "075522.750000", "075522.750000", "075522.765000", "075527.750000", "075527.750000", "075527.750000", "075527.750000", "075527.765000", "075532.750000", "075532.750000", "075532.750000", "075532.750000", "075537.750000", "075537.750000", "075537.750000", "075537.750000", "075542.750000", "075542.750000", "075542.750000", "075542.750000", "075547.750000", "075547.750000", "075547.750000", "075547.750000", "075552.750000", "075552.750000", "075552.765000", "075552.781000", "075557.750000", "075557.750000", "075557.750000", "075557.750000", "075602.750000", "075602.750000", "075602.750000", "075602.765000", "075607.750000", "075607.750000", "075607.750000", "075607.750000", "075612.750000", "075612.750000", "075612.750000", "075612.750000", "075617.750000", "075617.750000", "075617.750000", "075617.750000", "075622.750000", "075622.750000", "075622.750000", "075622.750000", "075627.750000", "075627.750000", "075627.750000", "075627.750000", "075632.750000", "075632.750000", "075632.750000", "075632.750000", "075637.750000", "075637.750000", "075637.750000", "075637.750000", "075642.750000", "075642.750000", "075642.750000", "075647.750000", "075647.750000", "075647.750000", "075647.765000", "075652.750000", "075652.750000", "075652.750000", "075652.765000", "075652.765000", "075657.750000", "075657.750000", "075657.750000", "075702.750000", "075702.750000", "075702.750000", "075702.750000", "075707.750000", "075707.750000", "075707.750000", "075707.750000", "075712.750000", "075712.750000", "075712.750000", "075712.750000", "075717.750000", "075717.750000", "075717.750000", "075717.750000", "075722.750000", "075722.750000", "075722.750000", "075722.750000", "075727.750000", "075727.750000", "075727.750000", "075727.765000", "075727.765000", "075732.750000", "075732.750000", "075732.750000", "075732.750000", "075737.750000", "075737.750000", "075737.750000", "075737.750000", "075742.750000", "075742.750000", "075742.750000", "075742.750000", "075747.750000", "075747.750000", "075747.750000", "075747.750000", "075752.750000", "075752.750000", "075752.750000", "075752.750000", "075752.750000", "075757.750000", "075757.750000", "075757.750000", "075757.750000", "075802.750000", "075802.750000", "075802.750000", "075802.781000", "075807.750000", "075807.750000", "075807.750000", "075807.750000", "075812.750000", "075812.750000", "075812.750000", "075812.781000", "075817.750000", "075817.750000", "075817.750000", "075817.765000", "075822.750000", "075822.750000", "075822.750000", "075822.765000", "075827.750000", "075827.750000", "075827.750000", "075827.765000", "075832.750000", "075832.750000", "075832.750000", "075832.750000", "075832.765000", "075842.750000", "075842.750000", "075842.750000", "075842.750000", "075842.765000", "075842.765000", "075842.765000", "075842.765000", "075847.750000", "075847.750000", "075847.750000", "075847.750000", "075852.750000", "075852.750000", "075852.750000", "075852.750000", "075852.765000", "075855.875000", "075855.890000", "075855.890000"], "InstanceCreationTime": ["075106.250000", "075112.750000", "075112.750000", "075112.750000", "075112.750000", "075112.765000", "075117.750000", "075117.750000", "075117.750000", "075117.750000", "075117.765000", "075122.750000", "075122.750000", "075122.750000", "075127.750000", "075127.750000", "075127.750000", "075127.750000", "075127.765000", "075132.750000", "075132.750000", "075132.750000", "075132.765000", "075137.750000", "075137.750000", "075137.750000", "075137.750000", "075142.750000", "075142.750000", "075142.750000", "075142.750000", "075147.750000", "075147.750000", "075147.750000", "075147.765000", "075152.750000", "075152.750000", "075152.750000", "075152.765000", "075157.750000", "075157.750000", "075157.750000", "075157.765000", "075202.750000", "075202.750000", "075202.750000", "075202.765000", "075207.750000", "075207.750000", "075207.750000", "075207.750000", "075212.750000", "075212.750000", "075212.750000", "075212.750000", "075217.750000", "075217.750000", "075217.750000", "075217.750000", "075222.750000", "075222.750000", "075222.750000", "075227.750000", "075227.750000", "075227.750000", "075227.750000", "075232.750000", "075232.750000", "075232.750000", "075232.765000", "075237.750000", "075237.750000", "075237.750000", "075237.750000", "075242.750000", "075242.750000", "075242.750000", "075242.765000", "075247.750000", "075247.750000", "075247.750000", "075247.750000", "075252.750000", "075252.750000", "075252.750000", "075252.750000", "075257.750000", "075257.750000", "075257.750000", "075257.750000", "075302.750000", "075302.750000", "075302.750000", "075302.750000", "075307.750000", "075307.750000", "075307.750000", "075307.750000", "075312.750000", "075312.750000", "075312.750000", "075312.750000", "075317.750000", "075317.750000", "075317.750000", "075317.750000", "075322.750000", "075322.750000", "075322.750000", "075322.750000", "075327.750000", "075327.750000", "075327.750000", "075327.750000", "075332.750000", "075332.750000", "075332.750000", "075332.750000", "075337.750000", "075337.750000", "075337.750000", "075342.750000", "075342.750000", "075342.750000", "075342.750000", "075347.750000", "075347.750000", "075347.750000", "075347.750000", "075352.750000", "075352.750000", "075352.750000", "075352.750000", "075357.750000", "075357.750000", "075357.750000", "075357.750000", "075402.750000", "075402.750000", "075402.750000", "075402.750000", "075407.750000", "075407.750000", "075407.750000", "075407.750000", "075412.750000", "075412.750000", "075412.750000", "075412.750000", "075417.750000", "075417.750000", "075417.750000", "075417.750000", "075422.750000", "075422.750000", "075422.750000", "075422.750000", "075427.750000", "075427.750000", "075427.750000", "075427.750000", "075432.750000", "075432.750000", "075432.750000", "075432.750000", "075437.750000", "075437.750000", "075437.750000", "075437.750000", "075442.750000", "075442.750000", "075442.750000", "075442.750000", "075447.750000", "075447.750000", "075447.765000", "075447.765000", "075452.750000", "075452.750000", "075452.750000", "075452.750000", "075457.750000", "075457.750000", "075457.750000", "075457.750000", "075502.750000", "075502.750000", "075502.750000", "075502.750000", "075507.750000", "075507.750000", "075507.750000", "075507.750000", "075512.750000", "075512.750000", "075512.750000", "075512.750000", "075512.750000", "075517.750000", "075517.750000", "075517.750000", "075522.750000", "075522.750000", "075522.750000", "075522.765000", "075527.750000", "075527.750000", "075527.750000", "075527.750000", "075527.765000", "075532.750000", "075532.750000", "075532.750000", "075532.750000", "075537.750000", "075537.750000", "075537.750000", "075537.750000", "075542.750000", "075542.750000", "075542.750000", "075542.750000", "075547.750000", "075547.750000", "075547.750000", "075547.750000", "075552.750000", "075552.750000", "075552.765000", "075552.781000", "075557.750000", "075557.750000", "075557.750000", "075557.750000", "075602.750000", "075602.750000", "075602.750000", "075602.765000", "075607.750000", "075607.750000", "075607.750000", "075607.750000", "075612.750000", "075612.750000", "075612.750000", "075612.750000", "075617.750000", "075617.750000", "075617.750000", "075617.750000", "075622.750000", "075622.750000", "075622.750000", "075622.750000", "075627.750000", "075627.750000", "075627.750000", "075627.750000", "075632.750000", "075632.750000", "075632.750000", "075632.750000", "075637.750000", "075637.750000", "075637.750000", "075637.750000", "075642.750000", "075642.750000", "075642.750000", "075647.750000", "075647.750000", "075647.750000", "075647.765000", "075652.750000", "075652.750000", "075652.750000", "075652.765000", "075652.765000", "075657.750000", "075657.750000", "075657.750000", "075702.750000", "075702.750000", "075702.750000", "075702.750000", "075707.750000", "075707.750000", "075707.750000", "075707.750000", "075712.750000", "075712.750000", "075712.750000", "075712.750000", "075717.750000", "075717.750000", "075717.750000", "075717.750000", "075722.750000", "075722.750000", "075722.750000", "075722.750000", "075727.750000", "075727.750000", "075727.750000", "075727.765000", "075727.765000", "075732.750000", "075732.750000", "075732.750000", "075732.750000", "075737.750000", "075737.750000", "075737.750000", "075737.750000", "075742.750000", "075742.750000", "075742.750000", "075742.750000", "075747.750000", "075747.750000", "075747.750000", "075747.750000", "075752.750000", "075752.750000", "075752.750000", "075752.750000", "075752.750000", "075757.750000", "075757.750000", "075757.750000", "075757.750000", "075802.750000", "075802.750000", "075802.750000", "075802.781000", "075807.750000", "075807.750000", "075807.750000", "075807.750000", "075812.750000", "075812.750000", "075812.750000", "075812.781000", "075817.750000", "075817.750000", "075817.750000", "075817.765000", "075822.750000", "075822.750000", "075822.750000", "075822.765000", "075827.750000", "075827.750000", "075827.750000", "075827.765000", "075832.750000", "075832.750000", "075832.750000", "075832.750000", "075832.765000", "075842.750000", "075842.750000", "075842.750000", "075842.750000", "075842.765000", "075842.765000", "075842.765000", "075842.765000", "075847.750000", "075847.750000", "075847.750000", "075847.750000", "075852.750000", "075852.750000", "075852.750000", "075852.750000", "075852.765000", "075855.875000", "075855.890000", "075855.890000"], "InstanceNumber": [1, 2, 3, 4, 5, 6, 7, 8, 9, 10, 11, 12, 13, 14, 15, 16, 17, 18, 19, 20, 21, 22, 23, 24, 25, 26, 27, 28, 29, 30, 31, 32, 33, 34, 35, 36, 37, 38, 39, 40, 41, 42, 43, 44, 45, 46, 47, 48, 49, 50, 51, 52, 53, 54, 55, 56, 57, 58, 59, 60, 61, 62, 63, 64, 65, 66, 67, 68, 69, 70, 71, 72, 73, 74, 75, 76, 77, 78, 79, 80, 81, 82, 83, 84, 85, 86, 87, 88, 89, 90, 91, 92, 93, 94, 95, 96, 97, 98, 99, 100, 101, 102, 103, 104, 105, 106, 107, 108, 109, 110, 111, 112, 113, 114, 115, 116, 117, 118, 119, 120, 121, 122, 123, 124, 125, 126, 127, 128, 129, 130, 131, 132, 133, 134, 135, 136, 137, 138, 139, 140, 141, 142, 143, 144, 145, 146, 147, 148, 149, 150, 151, 152, 153, 154, 155, 156, 157, 158, 159, 160, 161, 162, 163, 164, 165, 166, 167, 168, 169, 170, 171, 172, 173, 174, 175, 176, 177, 178, 179, 180, 181, 182, 183, 184, 185, 186, 187, 188, 189, 190, 191, 192, 193, 194, 195, 196, 197, 198, 199, 200, 201, 202, 203, 204, 205, 206, 207, 208, 209, 210, 211, 212, 213, 214, 215, 216, 217, 218, 219, 220, 221, 222, 223, 224, 225, 226, 227, 228, 229, 230, 231, 232, 233, 234, 235, 236, 237, 238, 239, 240, 241, 242, 243, 244, 245, 246, 247, 248, 249, 250, 251, 252, 253, 254, 255, 256, 257, 258, 259, 260, 261, 262, 263, 264, 265, 266, 267, 268, 269, 270, 271, 272, 273, 274, 275, 276, 277, 278, 279, 280, 281, 282, 283, 284, 285, 286, 287, 288, 289, 290, 291, 292, 293, 294, 295, 296, 297, 298, 299, 300, 301, 302, 303, 304, 305, 306, 307, 308, 309, 310, 311, 312, 313, 314, 315, 316, 317, 318, 319, 320, 321, 322, 323, 324, 325, 326, 327, 328, 329, 330, 331, 332, 333, 334, 335, 336, 337, 338, 339, 340, 341, 342, 343, 344, 345, 346, 347, 348, 349, 350, 351, 352, 353, 354, 355, 356, 357, 358, 359, 360, 361, 362, 363, 364, 365, 366, 367, 368, 369, 370, 371, 372, 373, 374, 375, 376, 377, 378, 379, 380], "LargestImagePixelValue": [21087, 21226, 20800, 20597, 20564, 20731, 20470, 20416, 20587, 20729, 21681, 20474, 21231, 20812, 22047, 20872, 20685, 20747, 21498, 20728, 20404, 21796, 20309, 20410, 21195, 20527, 20435, 20202, 20702, 20408, 20333, 20273, 20920, 20603, 21325, 20391, 20217, 22658, 20301, 20827, 20344, 20473, 20498, 21793, 21176, 20857, 21906, 20147, 20401, 20512, 20823, 21359, 20800, 20661, 20617, 21375, 20725, 21246, 22637, 20704, 20354, 22508, 20701, 20584, 20872, 20552, 21889, 20725, 20781, 21385, 20780, 20463, 20320, 20532, 21692, 20630, 20582, 20165, 20378, 20369, 21765, 20819, 20511, 20287, 21517, 21602, 21576, 20684, 20335, 20721, 20468, 21570, 22826, 20870, 21501, 20899, 20334, 20295, 22121, 20764, 20639, 21497, 23154, 20293, 20612, 20544, 20369, 20920, 21016, 20801, 20588, 20826, 20683, 21217, 20196, 20363, 21418, 21413, 20450, 21528, 22025, 20598, 20463, 20292, 21617, 21238, 20797, 20703, 20403, 20398, 21862, 21092, 20633, 20924, 20816, 21436, 22268, 20846, 21014, 20818, 20726, 20836, 20566, 21626, 21779, 20640, 21784, 21570, 20682, 20484, 21076, 20469, 21002, 20380, 21132, 21485, 22107, 22189, 20683, 21370, 21300, 20525, 20225, 21420, 20964, 20472, 20879, 20375, 21821, 20378, 21185, 20416, 20782, 20886, 21395, 21413, 20728, 20960, 20461, 21219, 20428, 20532, 20818, 20813, 20428, 20555, 22433, 20474, 20698, 20757, 20579, 21116, 20613, 20484, 21009, 22203, 20783, 20741, 20316, 20495, 20823, 20723, 20775, 20937, 20741, 21536, 20796, 20400, 20733, 20597, 21080, 20838, 20929, 20523, 21234, 20821, 20799, 20794, 21057, 20686, 20693, 21545, 20594, 20941, 20998, 21046, 20440, 20808, 20715, 21383, 20732, 20775, 22647, 22546, 20751, 21339, 21119, 20784, 21289, 20497, 21312, 20996, 20695, 20676, 20596, 20516, 20660, 20504, 20795, 20631, 20795, 20545, 20870, 20781, 20761, 20954, 21002, 20685, 20899, 20706, 21005, 20458, 21436, 21023, 20710, 20953, 20777, 21014, 20996, 20874, 20722, 20720, 207