{
    "AcquisitionMatrixPE": 96,
    "AcquisitionNumber": 1,
    "AcquisitionTime": "17:08:18.472500",
    "BandwidthPerPixelPhaseEncode": 33.602,
    "BaseResolution": 96,
    "BodyPartExamined": "BRAIN",
    "ConsistencyInfo": "N4_VD11D_LATEST_20110129",
    "ConversionSoftware": "dcm2niix",
    "ConversionSoftwareVersion": "v1.0.20210317",
    "DerivedVendorReportedEchoSpacing": 0.000620003,
    "DeviceSerialNumber": "45239",
    "DwellTime": 2.6e-06,
    "EchoTime": 0.03,
    "EchoTrainLength": 48,
    "EffectiveEchoSpacing": 0.000310001,
    "FlipAngle": 63,
    "ImageComments": "Unaliased MB4/PE3",
    "ImageOrientationPatientDICOM": [
        0.999586,
        -0.025664,
        0.0130201,
        0.0287779,
        0.891428,
        -0.452247
    ],
    "ImageType": [
        "ORIGINAL",
        "PRIMARY",
        "M",
        "ND",
        "NORM",
        "MOSAIC"
    ],
    "ImagingFrequency": 123.193,
    "InPlanePhaseEncodingDirectionDICOM": "COL",
    "InstitutionAddress": "E 24th St. 100,Austin,Southmiddle,US,78712",
    "InstitutionName": "Univ of Texas at Austin",
    "InstitutionalDepartmentName": "IRC",
    "MRAcquisitionType": "2D",
    "MagneticFieldStrength": 3,
    "Manufacturer": "Siemens",
    "ManufacturersModelName": "Skyra",
    "Modality": "MR",
    "MultibandAccelerationFactor": 4,
    "ParallelReductionFactorInPlane": 2,
    "PartialFourier": 1,
    "PatientPosition": "HFS",
    "PercentPhaseFOV": 100,
    "PercentSampling": 100,
    "PhaseEncodingDirection": "j-",
    "PhaseEncodingSteps": 96,
    "PhaseResolution": 1,
    "PixelBandwidth": 2005,
    "ProcedureStepDescription": "Poldrack2^self-scanning",
    "ProtocolName": "Resting State fMRI MBEPI_matrix96_BW2004",
    "PulseSequenceDetails": "%CustomerSeq%\\cmrr_mbep2d_bold",
    "ReceiveCoilActiveElements": "HEA;HEP",
    "ReceiveCoilName": "Head_32",
    "ReconMatrixPE": 96,
    "RefLinesPE": 94,
    "RepetitionTime": 1.16,
    "SAR": 0.097397,
    "ScanOptions": "FS",
    "ScanningSequence": "EP",
    "SequenceName": "epfid2d1_96",
    "SequenceVariant": "SK",
    "SeriesDescription": "Resting State fMRI MBEPI_matrix96_BW2004",
    "SeriesNumber": 9,
    "ShimSetting": [
        -2772,
        8058,
        -15432,
        204,
        -195,
        89,
        194,
        -66
    ],
    "SliceThickness": 2,
    "SliceTiming": [
        0,
        0.5,
        0.9975,
        0.3575,
        0.855,
        0.215,
        0.7125,
        0.0725,
        0.57,
        1.07,
        0.4275,
        0.9275,
        0.285,
        0.785,
        0.1425,
        0.6425,
        0,
        0.5,
        0.9975,
        0.3575,
        0.855,
        0.215,
        0.7125,
        0.0725,
        0.57,
        1.07,
        0.4275,
        0.9275,
        0.285,
        0.785,
        0.1425,
        0.6425,
        0,
        0.5,
        0.9975,
        0.3575,
        0.855,
        0.215,
        0.7125,
        0.0725,
        0.57,
        1.07,
        0.4275,
        0.9275,
        0.285,
        0.785,
        0.1425,
        0.6425,
        0,
        0.5,
        0.9975,
        0.3575,
        0.855,
        0.215,
        0.7125,
        0.0725,
        0.57,
        1.07,
        0.4275,
        0.9275,
        0.285,
        0.785,
        0.1425,
        0.6425
    ],
    "SoftwareVersions": "syngo MR D11",
    "SpacingBetweenSlices": 2.4,
    "StationName": "AWP45239",
    "TaskName": "Resting fmri",
    "TotalReadoutTime": 0.0294501,
    "TxRefAmp": 343.564,
    "WipMemBlock": "2a0d350c-e80b-43ae-9f39-54bea85d2aa0||Sequence: VD11D r195; Nov 21 2012 15:36:10 by eja",
    "dcmmeta_affine": [
        [
            -2.394840955734253,
            0.06894697993993759,
            -5.233549416061578e-08,
            117.5572738647461
        ],
        [
            0.06148677319288254,
            2.1357133388519287,
            -1.0858432054519653,
            -85.91839599609375
        ],
        [
            0.031193960458040237,
            1.0835092067718506,
            2.1403141021728516,
            -78.55596923828125
        ],
        [
            0.0,
            0.0,
            0.0,
            1.0
        ]
    ],
    "dcmmeta_reorient_transform": [
        [
            0.0,
            -1.0,
            0.0,
            95.0
        ],
        [
            1.0,
            0.0,
            0.0,
            0.0
        ],
        [
            0.0,
            0.0,
            1.0,
            0.0
        ],
        [
            0.0,
            0.0,
            0.0,
            1.0
        ]
    ],
    "dcmmeta_shape": [
        96,
        96,
        64,
        518
    ],
    "dcmmeta_slice_dim": 2,
    "dcmmeta_version": 0.6,
    "global": {
        "const": {
            "AcquisitionMatrix": [
                96,
                0,
                0,
                96
            ],
            "AngioFlag": "N",
            "BitsAllocated": 16,
            "BitsStored": 16,
            "BodyPartExamined": "BRAIN",
            "Columns": 768,
            "EchoNumbers": 1,
            "EchoTime": 30.0,
            "EchoTrainLength": 48,
            "FlipAngle": 63.0,
            "HighBit": 15,
            "ImageOrientationPatient": [
                0.99958583128965,
                -0.025664044709,
                0.01302008810052,
                0.02877787144614,
                0.89142818108415,
                -0.452247312965
            ],
            "ImagePositionPatient": [
                -951.93999024911,
                -813.91447043815,
                377.95530353645
            ],
            "ImageType": [
                "ORIGINAL",
                "PRIMARY",
                "M",
                "ND",
                "NORM",
                "MOSAIC"
            ],
            "ImagedNucleus": "1H",
            "ImagingFrequency": 123.193243,
            "InPlanePhaseEncodingDirection": "COL",
            "MRAcquisitionType": "2D",
            "MagneticFieldStrength": 3.0,
            "Manufacturer": "SIEMENS",
            "ManufacturerModelName": "Skyra",
            "Modality": "MR",
            "NumberOfAverages": 1.0,
            "NumberOfPhaseEncodingSteps": 96,
            "PercentPhaseFieldOfView": 100.0,
            "PercentSampling": 100.0,
            "PerformedProcedureStepStartTime": "165318.734000",
            "PhotometricInterpretation": "MONOCHROME2",
            "PixelBandwidth": 2005.0,
            "PixelRepresentation": 0,
            "PixelSpacing": [
                2.3958332538605,
                2.3958332538605
            ],
            "ProtocolName": "Resting State fMRI MBEPI_matrix96_BW2004",
            "RepetitionTime": 1160.0,
            "Rows": 768,
            "SAR": 0.09739700168563,
            "SamplesPerPixel": 1,
            "ScanOptions": "FS",
            "ScanningSequence": "EP",
            "SequenceName": "epfid2d1_96",
            "SequenceVariant": "SK",
            "SeriesDescription": "Resting State fMRI MBEPI_matrix96_BW2004",
            "SeriesNumber": 9,
            "SeriesTime": "170901.078000",
            "SliceLocation": -31.183558917768,
            "SliceThickness": 2.0,
            "SmallestImagePixelValue": 0,
            "SoftwareVersions": "syngo MR D11",
            "SpacingBetweenSlices": 2.399999965015,
            "SpecificCharacterSet": "ISO_IR 100",
            "StudyID": "2",
            "StudyTime": "165318.703000",
            "TransmitCoilName": "Body",
            "VariableFlipAngleFlag": "N",
            "WindowCenterWidthExplanation": "Algo1",
            "dBdt": 0.0
        },
        "slices": {}
    },
    "time": {
        "samples": {
            "AcquisitionNumber": [
                1,
                2,
                3,
                4,
                5,
                6,
                7,
                8,
                9,
                10,
                11,
                12,
                13,
                14,
                15,
                16,
                17,
                18,
                19,
                20,
                21,
                22,
                23,
                24,
                25,
                26,
                27,
                28,
                29,
                30,
                31,
                32,
                33,
                34,
                35,
                36,
                37,
                38,
                39,
                40,
                41,
                42,
                43,
                44,
                45,
                46,
                47,
                48,
                49,
                50,
                51,
                52,
                53,
                54,
                55,
                56,
                57,
                58,
                59,
                60,
                61,
                62,
                63,
                64,
                65,
                66,
                67,
                68,
                69,
                70,
                71,
                72,
                73,
                74,
                75,
                76,
                77,
                78,
                79,
                80,
                81,
                82,
                83,
                84,
                85,
                86,
                87,
                88,
                89,
                90,
                91,
                92,
                93,
                94,
                95,
                96,
                97,
                98,
                99,
                100,
                101,
                102,
                103,
                104,
                105,
                106,
                107,
                108,
                109,
                110,
                111,
                112,
                113,
                114,
                115,
                116,
                117,
                118,
                119,
                120,
                121,
                122,
                123,
                124,
                125,
                126,
                127,
                128,
                129,
                130,
                131,
                132,
                133,
                134,
                135,
                136,
                137,
                138,
                139,
                140,
                141,
                142,
                143,
                144,
                145,
                146,
                147,
                148,
                149,
                150,
                151,
                152,
                153,
                154,
                155,
                156,
                157,
                158,
                159,
                160,
                161,
                162,
                163,
                164,
                165,
                166,
                167,
                168,
                169,
                170,
                171,
                172,
                173,
                174,
                175,
                176,
                177,
                178,
                179,
                180,
                181,
                182,
                183,
                184,
                185,
                186,
                187,
                188,
                189,
                190,
                191,
                192,
                193,
                194,
                195,
                196,
                197,
                198,
                199,
                200,
                201,
                202,
                203,
                204,
                205,
                206,
                207,
                208,
                209,
                210,
                211,
                212,
                213,
                214,
                215,
                216,
                217,
                218,
                219,
                220,
                221,
                222,
                223,
                224,
                225,
                226,
                227,
                228,
                229,
                230,
                231,
                232,
                233,
                234,
                235,
                236,
                237,
                238,
                239,
                240,
                241,
                242,
                243,
                244,
                245,
                246,
                247,
                248,
                249,
                250,
                251,
                252,
                253,
                254,
                255,
                256,
                257,
                258,
                259,
                260,
                261,
                262,
                263,
                264,
                265,
                266,
                267,
                268,
                269,
                270,
                271,
                272,
                273,
                274,
                275,
                276,
                277,
                278,
                279,
                280,
                281,
                282,
                283,
                284,
                285,
                286,
                287,
                288,
                289,
                290,
                291,
                292,
                293,
                294,
                295,
                296,
                297,
                298,
                299,
                300,
                301,
                302,
                303,
                304,
                305,
                306,
                307,
                308,
                309,
                310,
                311,
                312,
                313,
                314,
                315,
                316,
                317,
                318,
                319,
                320,
                321,
                322,
                323,
                324,
                325,
                326,
                327,
                328,
                329,
                330,
                331,
                332,
                333,
                334,
                335,
                336,
                337,
                338,
                339,
                340,
                341,
                342,
                343,
                344,
                345,
                346,
                347,
                348,
                349,
                350,
                351,
                352,
                353,
                354,
                355,
                356,
                357,
                358,
                359,
                360,
                361,
                362,
                363,
                364,
                365,
                366,
                367,
                368,
                369,
                370,
                371,
                372,
                373,
                374,
                375,
                376,
                377,
                378,
                379,
                380,
                381,
                382,
                383,
                384,
                385,
                386,
                387,
                388,
                389,
                390,
                391,
                392,
                393,
                394,
                395,
                396,
                397,
                398,
                399,
                400,
                401,
                402,
                403,
                404,
                405,
                406,
                407,
                408,
                409,
                410,
                411,
                412,
                413,
                414,
                415,
                416,
                417,
                418,
                419,
                420,
                421,
                422,
                423,
                424,
                425,
                426,
                427,
                428,
                429,
                430,
                431,
                432,
                433,
                434,
                435,
                436,
                437,
                438,
                439,
                440,
                441,
                442,
                443,
                444,
                445,
                446,
                447,
                448,
                449,
                450,
                451,
                452,
                453,
                454,
                455,
                456,
                457,
                458,
                459,
                460,
                461,
                462,
                463,
                464,
                465,
                466,
                467,
                468,
                469,
                470,
                471,
                472,
                473,
                474,
                475,
                476,
                477,
                478,
                479,
                480,
                481,
                482,
                483,
                484,
                485,
                486,
                487,
                488,
                489,
                490,
                491,
                492,
                493,
                494,
                495,
                496,
                497,
                498,
                499,
                500,
                501,
                502,
                503,
                504,
                505,
                506,
                507,
                508,
                509,
                510,
                511,
                512,
                513,
                514,
                515,
                516,
                517,
                518
            ],
            "AcquisitionTime": [
                "170818.472500",
                "170847.470000",
                "170848.630000",
                "170849.790000",
                "170850.952500",
                "170852.112500",
                "170853.272500",
                "170854.432500",
                "170855.592500",
                "170856.752500",
                "170857.912500",
                "170859.072500",
                "170900.232500",
                "170901.392500",
                "170902.552500",
                "170903.712500",
                "170904.872500",
                "170906.032500",
                "170907.192500",
                "170908.352500",
                "170909.512500",
                "170910.672500",
                "170911.832500",
                "170912.992500",
                "170914.152500",
                "170915.312500",
                "170916.472500",
                "170917.632500",
                "170918.792500",
                "170919.952500",
                "170921.112500",
                "170922.272500",
                "170923.432500",
                "170924.592500",
                "170925.752500",
                "170926.912500",
                "170928.072500",
                "170929.232500",
                "170930.392500",
                "170931.552500",
                "170932.712500",
                "170933.872500",
                "170935.032500",
                "170936.192500",
                "170937.352500",
                "170938.512500",
                "170939.672500",
                "170940.832500",
                "170941.992500",
                "170943.152500",
                "170944.312500",
                "170945.472500",
                "170946.632500",
                "170947.792500",
                "170948.952500",
                "170950.112500",
                "170951.272500",
                "170952.432500",
                "170953.592500",
                "170954.752500",
                "170955.912500",
                "170957.072500",
                "170958.232500",
                "170959.392500",
                "171000.552500",
                "171001.712500",
                "171002.872500",
                "171004.032500",
                "171005.192500",
                "171006.352500",
                "171007.512500",
                "171008.672500",
                "171009.832500",
                "171010.992500",
                "171012.152500",
                "171013.312500",
                "171014.472500",
                "171015.632500",
                "171016.792500",
                "171017.952500",
                "171019.112500",
                "171020.272500",
                "171021.432500",
                "171022.592500",
                "171023.752500",
                "171024.912500",
                "171026.072500",
                "171027.232500",
                "171028.392500",
                "171029.552500",
                "171030.712500",
                "171031.872500",
                "171033.032500",
                "171034.192500",
                "171035.352500",
                "171036.512500",
                "171037.672500",
                "171038.832500",
                "171039.992500",
                "171041.152500",
                "171042.312500",
                "171043.472500",
                "171044.632500",
                "171045.792500",
                "171046.952500",
                "171048.112500",
                "171049.272500",
                "171050.432500",
                "171051.592500",
                "171052.752500",
                "171053.912500",
                "171055.072500",
                "171056.232500",
                "171057.392500",
                "171058.552500",
                "171059.712500",
                "171100.872500",
                "171102.032500",
                "171103.192500",
                "171104.352500",
                "171105.512500",
                "171106.672500",
                "171107.832500",
                "171108.992500",
                "171110.152500",
                "171111.312500",
                "171112.472500",
                "171113.632500",
                "171114.792500",
                "171115.952500",
                "171117.112500",
                "171118.272500",
                "171119.432500",
                "171120.592500",
                "171121.752500",
                "171122.912500",
                "171124.072500",
                "171125.232500",
                "171126.392500",
                "171127.552500",
                "171128.712500",
                "171129.872500",
                "171131.032500",
                "171132.192500",
                "171133.352500",
                "171134.512500",
                "171135.672500",
                "171136.832500",
                "171137.992500",
                "171139.152500",
                "171140.312500",
                "171141.472500",
                "171142.632500",
                "171143.792500",
                "171144.952500",
                "171146.112500",
                "171147.272500",
                "171148.432500",
                "171149.592500",
                "171150.752500",
                "171151.912500",
                "171153.072500",
                "171154.232500",
                "171155.392500",
                "171156.552500",
                "171157.712500",
                "171158.872500",
                "171200.032500",
                "171201.192500",
                "171202.352500",
                "171203.512500",
                "171204.672500",
                "171205.832500",
                "171206.992500",
                "171208.152500",
                "171209.312500",
                "171210.472500",
                "171211.632500",
                "171212.792500",
                "171213.952500",
                "171215.112500",
                "171216.272500",
                "171217.432500",
                "171218.592500",
                "171219.752500",
                "171220.912500",
                "171222.072500",
                "171223.232500",
                "171224.392500",
                "171225.552500",
                "171226.712500",
                "171227.872500",
                "171229.032500",
                "171230.192500",
                "171231.352500",
                "171232.512500",
                "171233.672500",
                "171234.832500",
                "171235.992500",
                "171237.152500",
                "171238.312500",
                "171239.472500",
                "171240.632500",
                "171241.792500",
                "171242.952500",
                "171244.112500",
                "171245.272500",
                "171246.432500",
                "171247.592500",
                "171248.752500",
                "171249.912500",
                "171251.072500",
                "171252.232500",
                "171253.392500",
                "171254.552500",
                "171255.712500",
                "171256.872500",
                "171258.032500",
                "171259.192500",
                "171300.352500",
                "171301.512500",
                "171302.672500",
                "171303.832500",
                "171304.992500",
                "171306.152500",
                "171307.312500",
                "171308.472500",
                "171309.632500",
                "171310.792500",
                "171311.952500",
                "171313.112500",
                "171314.272500",
                "171315.432500",
                "171316.592500",
                "171317.752500",
                "171318.912500",
                "171320.072500",
                "171321.232500",
                "171322.392500",
                "171323.552500",
                "171324.712500",
                "171325.872500",
                "171327.032500",
                "171328.192500",
                "171329.352500",
                "171330.512500",
                "171331.672500",
                "171332.832500",
                "171333.992500",
                "171335.152500",
                "171336.312500",
                "171337.472500",
                "171338.632500",
                "171339.792500",
                "171340.955000",
                "171342.115000",
                "171343.275000",
                "171344.435000",
                "171345.595000",
                "171346.755000",
                "171347.915000",
                "171349.075000",
                "171350.235000",
                "171351.395000",
                "171352.555000",
                "171353.715000",
                "171354.875000",
                "171356.035000",
                "171357.195000",
                "171358.355000",
                "171359.515000",
                "171400.675000",
                "171401.835000",
                "171402.995000",
                "171404.155000",
                "171405.315000",
                "171406.475000",
                "171407.635000",
                "171408.795000",
                "171409.955000",
                "171411.115000",
                "171412.275000",
                "171413.435000",
                "171414.595000",
                "171415.755000",
                "171416.915000",
                "171418.075000",
                "171419.235000",
                "171420.395000",
                "171421.555000",
                "171422.715000",
                "171423.875000",
                "171425.035000",
                "171426.195000",
                "171427.355000",
                "171428.515000",
                "171429.675000",
                "171430.835000",
                "171431.995000",
                "171433.155000",
                "171434.315000",
                "171435.475000",
                "171436.635000",
                "171437.795000",
                "171438.955000",
                "171440.115000",
                "171441.275000",
                "171442.435000",
                "171443.595000",
                "171444.755000",
                "171445.915000",
                "171447.075000",
                "171448.235000",
                "171449.395000",
                "171450.555000",
                "171451.715000",
                "171452.875000",
                "171454.035000",
                "171455.195000",
                "171456.355000",
                "171457.515000",
                "171458.675000",
                "171459.835000",
                "171500.995000",
                "171502.155000",
                "171503.315000",
                "171504.475000",
                "171505.635000",
                "171506.795000",
                "171507.955000",
                "171509.115000",
                "171510.275000",
                "171511.435000",
                "171512.595000",
                "171513.755000",
                "171514.915000",
                "171516.075000",
                "171517.235000",
                "171518.395000",
                "171519.555000",
                "171520.715000",
                "171521.875000",
                "171523.035000",
                "171524.195000",
                "171525.355000",
                "171526.515000",
                "171527.675000",
