{"AcquisitionMatrixPE": 96, "AcquisitionNumber": 1, "AcquisitionTime": "17:20:23.302500", "BaseResolution": 96, "BodyPartExamined": "BRAIN", "ConsistencyInfo": "N4_VD11D_LATEST_20110129", "ConversionSoftware": "dcm2niix", "ConversionSoftwareVersion": "v1.0.20210317", "DeviceSerialNumber": "45239", "DwellTime": 9.2e-06, "EchoNumber": 2, "EchoTime": 0.00738, "EchoTime1": 0.00492, "EchoTime2": 0.00738, "FlipAngle": 50, "ImageOrientationPatientDICOM": [0.998504, 0.013868, 0.0528853, 0.0207251, 0.799095, -0.600847], "ImageType": ["ORIGINAL", "PRIMARY", "P", "ND", "PHASE"], "ImagingFrequency": 123.193, "InPlanePhaseEncodingDirectionDICOM": "COL", "InstitutionAddress": "E 24th St. 100,Austin,Southmiddle,US,78712", "InstitutionName": "Univ of Texas at Austin", "InstitutionalDepartmentName": "IRC", "MRAcquisitionType": "2D", "MagneticFieldStrength": 3, "Manufacturer": "Siemens", "ManufacturersModelName": "Skyra", "Modality": "MR", "MultibandAccelerationFactor": 2, "PartialFourier": 1, "PatientPosition": "HFS", "PercentPhaseFOV": 100, "PercentSampling": 100, "PhaseEncodingDirection": "j-", "PhaseEncodingSteps": 96, "PhaseResolution": 1, "PixelBandwidth": 565, "ProcedureStepDescription": "Poldrack2^self-scanning", "ProtocolName": "gre_field_mapping", "PulseSequenceDetails": "%SiemensSeq%\\gre_field_mapping", "ReceiveCoilActiveElements": "HEA;HEP", "ReceiveCoilName": "Head_32", "ReconMatrixPE": 96, "RepetitionTime": 0.731, "SAR": 0.111345, "ScanningSequence": "GR", "SequenceName": "*fm2d2r", "SequenceVariant": "SP", "SeriesDescription": "gre_field_mapping", "SeriesNumber": 11, "ShimSetting": [-2781, 8107, -15449, 163, -253, 186, 82, -90], "SliceThickness": 2, "SliceTiming": [0.35938, 0, 0.375, 0.01562, 0.39062, 0.01562, 0.39062, 0.03125, 0.40625, 0.04688, 0.42188, 0.04688, 0.42188, 0.0625, 0.4375, 0.07812, 0.45312, 0.07812, 0.45312, 0.09375, 0.46875, 0.10938, 0.48438, 0.125, 0.5, 0.125, 0.5, 0.14062, 0.51562, 0.15625, 0.53125, 0.15625, 0.53125, 0.17188, 0.54688, 0.1875, 0.5625, 0.1875, 0.5625, 0.20312, 0.57812, 0.21875, 0.59375, 0.21875, 0.59375, 0.23438, 0.60938, 0.25, 0.625, 0.25, 0.625, 0.26562, 0.64062, 0.28125, 0.65625, 0.29688, 0.67188, 0.29688, 0.67188, 0.3125, 0.6875, 0.3125, 0.70312, 0.32812, 0.70312, 0.34375, 0.71875, 0.35938], "SoftwareVersions": "syngo MR D11", "SpacingBetweenSlices": 2.4, "StationName": "AWP45239", "TxRefAmp": 337.722, "dcmmeta_affine": [[-2.392249822616577, 0.04965398833155632, 0.12142324447631836, 111.5133056640625], [-0.033225346356630325, 1.914499282836914, -1.4425048828125, -62.92677688598633], [0.1267043799161911, 1.4395291805267334, 1.9142684936523438, -97.8694839477539], [0.0, 0.0, 0.0, 1.0]], "dcmmeta_reorient_transform": [[0.0, -1.0, 0.0, 95.0], [1.0, 0.0, 0.0, 0.0], [0.0, 0.0, -1.0, 67.0], [0.0, 0.0, 0.0, 1.0]], "dcmmeta_shape": [96, 96, 68], "dcmmeta_slice_dim": 2, "dcmmeta_version": 0.6, "global": {"const": {"AcquisitionMatrix": [96, 0, 0, 96], "AcquisitionNumber": 1, "AngioFlag": "N", "BitsAllocated": 16, "BitsStored": 12, "BodyPartExamined": "BRAIN", "Columns": 96, "EchoNumbers": 2, "EchoTime": 7.38, "EchoTrainLength": 0, "FlipAngle": 50.0, "HighBit": 11, "ImageOrientationPatient": [0.99850429330296, 0.0138679709772, 0.05288530643324, 0.02072514292963, 0.79909536418578, -0.600846958374], "ImageType": ["ORIGINAL", "PRIMARY", "P", "ND"], "ImagedNucleus": "1H", "ImagingFrequency": 123.193342, "InPlanePhaseEncodingDirection": "COL", "MRAcquisitionType": "2D", "MagneticFieldStrength": 3.0, "Manufacturer": "SIEMENS", "ManufacturerModelName": "Skyra", "Modality": "MR", "NumberOfAverages": 1.0, "NumberOfPhaseEncodingSteps": 96, "PercentPhaseFieldOfView": 100.0, "PercentSampling": 100.0, "PerformedProcedureStepStartTime": "165913.078000", "PhotometricInterpretation": "MONOCHROME2", "PixelBandwidth": 565.0, "PixelRepresentation": 0, "PixelSpacing": [2.3958332538605, 2.3958332538605], "ProtocolName": "gre_field_mapping", "RepetitionTime": 731.0, "RescaleIntercept": -4096.0, "RescaleSlope": 2.0, "RescaleType": "US", "Rows": 96, "SAR": 0.11134483464019, "SamplesPerPixel": 1, "ScanningSequence": "GR", "SequenceName": "*fm2d2r", "SequenceVariant": "SP", "SeriesDescription": "gre_field_mapping", "SeriesNumber": 11, "SeriesTime": "172245.046000", "SliceThickness": 2.0, "SoftwareVersions": "syngo MR D11", "SpacingBetweenSlices": 2.4, "SpecificCharacterSet": "ISO_IR 100", "StudyID": "1", "StudyTime": "165913.031000", "TransmitCoilName": "Body", "VariableFlipAngleFlag": "N", "WindowCenterWidthExplanation": "Algo1", "dBdt": 0.0}, "slices": {"AcquisitionTime": ["172023.302500", "172022.935000", "172023.312500", "172022.947500", "172023.322500", "172022.957500", "172023.335000", "172022.967500", "172023.345000", "172022.980000", "172023.355000", "172022.990000", "172023.365000", "172023.000000", "172023.377500", "172023.012500", "172023.387500", "172023.022500", "172023.397500", "172023.032500", "172023.410000", "172023.042500", "172023.420000", "172023.055000", "172023.430000", "172023.065000", "172023.442500", "172023.075000", "172023.452500", "172023.087500", "172023.462500", "172023.097500", "172023.472500", "172023.107500", "172023.485000", "172023.120000", "172023.495000", "172023.130000", "172023.505000", "172023.140000", "172023.517500", "172023.150000", "172023.527500", "172023.162500", "172023.537500", "172023.172500", "172023.550000", "172023.182500", "172023.560000", "172023.195000", "172023.570000", "172023.205000", "172023.580000", "172023.215000", "172023.592500", "172023.227500", "172023.602500", "172023.237500", "172023.612500", "172023.247500", "172023.625000", "172023.257500", "172023.635000", "172023.270000", "172023.645000", "172023.280000", "172023.657500", "172023.290000"], "ContentTime": ["172245.296000", "172245.062000", "172245.296000", "172245.203000", "172245.296000", "172245.218000", "172245.296000", "172245.218000", "172245.296000", "172245.218000", "172245.312000", "172245.218000", "172245.312000", "172245.218000", "172245.312000", "172245.218000", "172245.312000", "172245.218000", "172245.312000", "172245.218000", "172245.312000", "172245.218000", "172245.312000", "172245.234000", "172245.312000", "172245.250000", "172245.312000", "172245.265000", "172245.328000", "172245.265000", "172245.328000", "172245.265000", "172245.328000", "172245.265000", "172245.328000", "172245.265000", "172245.328000", "172245.265000", "172245.328000", "172245.265000", "172245.328000", "172245.265000", "172245.328000", "172245.265000", "172245.343000", "172245.281000", "172245.343000", "172245.281000", "172245.343000", "172245.281000", "172245.343000", "172245.281000", "172245.359000", "172245.281000", "172245.359000", "172245.281000", "172245.359000", "172245.281000", "172245.375000", "172245.281000", "172245.375000", "172245.281000", "172245.390000", "172245.296000", "172245.390000", "172245.296000", "172245.390000", "172245.296000"], "CsaImage.GSWDDataType": ["predicted", "predicted", "predicted", "predicted", "predicted", "predicted", "predicted", "predicted", "predicted", "predicted", "predicted", "predicted", "predicted", "predicted", "predicted", "predicted", "predicted", "predicted", "measured", "predicted", "measured", "predicted", "measured", "predicted", "measured", "predicted", "measured", "predicted", "measured", "predicted", "measured", "predicted", "measured", "predicted", "measured", "predicted", "measured", "predicted", "measured", "predicted", "measured", "predicted", "measured", "predicted", "measured", "predicted", "measured", "predicted", "measured", "predicted", "measured", "predicted", "measured", "predicted", "measured", "predicted", "measured", "predicted", "measured", "predicted", "measured", "predicted", "measured", "predicted", "measured", "predicted", "measured", "predicted"], "CsaImage.ICE_Dims": ["X_2_1_1_1_1_1_35_1_1_1_1_181", "X_2_1_1_1_1_1_1_1_1_2_1_181", "X_2_1_1_1_1_1_36_1_1_3_1_181", "X_2_1_1_1_1_1_2_1_1_4_1_181", "X_2_1_1_1_1_1_37_1_1_5_1_181", "X_2_1_1_1_1_1_3_1_1_6_1_181", "X_2_1_1_1_1_1_38_1_1_7_1_181", "X_2_1_1_1_1_1_4_1_1_8_1_181", "X_2_1_1_1_1_1_39_1_1_9_1_181", "X_2_1_1_1_1_1_5_1_1_10_1_181", "X_2_1_1_1_1_1_40_1_1_11_1_181", "X_2_1_1_1_1_1_6_1_1_12_1_181", "X_2_1_1_1_1_1_41_1_1_13_1_181", "X_2_1_1_1_1_1_7_1_1_14_1_181", "X_2_1_1_1_1_1_42_1_1_15_1_181", "X_2_1_1_1_1_1_8_1_1_16_1_181", "X_2_1_1_1_1_1_43_1_1_17_1_181", "X_2_1_1_1_1_1_9_1_1_18_1_181", "X_2_1_1_1_1_1_44_1_1_19_1_181", "X_2_1_1_1_1_1_10_1_1_20_1_181", "X_2_1_1_1_1_1_45_1_1_21_1_181", "X_2_1_1_1_1_1_11_1_1_22_1_181", "X_2_1_1_1_1_1_46_1_1_23_1_181", "X_2_1_1_1_1_1_12_1_1_24_1_181", "X_2_1_1_1_1_1_47_1_1_25_1_181", "X_2_1_1_1_1_1_13_1_1_26_1_181", "X_2_1_1_1_1_1_48_1_1_27_1_181", "X_2_1_1_1_1_1_14_1_1_28_1_181", "X_2_1_1_1_1_1_49_1_1_29_1_181", "X_2_1_1_1_1_1_15_1_1_30_1_181", "X_2_1_1_1_1_1_50_1_1_31_1_181", "X_2_1_1_1_1_1_16_1_1_32_1_181", "X_2_1_1_1_1_1_51_1_1_33_1_181", "X_2_1_1_1_1_1_17_1_1_34_1_181", "X_2_1_1_1_1_1_52_1_1_35_1_181", "X_2_1_1_1_1_1_18_1_1_36_1_181", "X_2_1_1_1_1_1_53_1_1_37_1_181", "X_2_1_1_1_1_1_19_1_1_38_1_181", "X_2_1_1_1_1_1_54_1_1_39_1_181", "X_2_1_1_1_1_1_20_1_1_40_1_181", "X_2_1_1_1_1_1_55_1_1_41_1_181", "X_2_1_1_1_1_1_21_1_1_42_1_181", "X_2_1_1_1_1_1_56_1_1_43_1_181", "X_2_1_1_1_1_1_22_1_1_44_1_181", "X_2_1_1_1_1_1_57_1_1_45_1_181", "X_2_1_1_1_1_1_23_1_1_46_1_181", "X_2_1_1_1_1_1_58_1_1_47_1_181", "X_2_1_1_1_1_1_24_1_1_48_1_181", "X_2_1_1_1_1_1_59_1_1_49_1_181", "X_2_1_1_1_1_1_25_1_1_50_1_181", "X_2_1_1_1_1_1_60_1_1_51_1_181", "X_2_1_1_1_1_1_26_1_1_52_1_181", "X_2_1_1_1_1_1_61_1_1_53_1_181", "X_2_1_1_1_1_1_27_1_1_54_1_181", "X_2_1_1_1_1_1_62_1_1_55_1_181", "X_2_1_1_1_1_1_28_1_1_56_1_181", "X_2_1_1_1_1_1_63_1_1_57_1_181", "X_2_1_1_1_1_1_29_1_1_58_1_181", "X_2_1_1_1_1_1_64_1_1_59_1_181", "X_2_1_1_1_1_1_30_1_1_60_1_181", "X_2_1_1_1_1_1_65_1_1_61_1_181", "X_2_1_1_1_1_1_31_1_1_62_1_181", "X_2_1_1_1_1_1_66_1_1_63_1_181", "X_2_1_1_1_1_1_32_1_1_64_1_181", "X_2_1_1_1_1_1_67_1_1_65_1_181", "X_2_1_1_1_1_1_33_1_1_66_1_181", "X_2_1_1_1_1_1_68_1_1_67_1_181", "X_2_1_1_1_1_1_34_1_1_68_1_181"], "CsaImage.ProtocolSliceNumber": [0, 1, 2, 3, 4, 5, 6, 7, 8, 9, 10, 11, 12, 13, 14, 15, 16, 17, 18, 19, 20, 21, 22, 23, 24, 25, 26, 27, 28, 29, 30, 31, 32, 33, 34, 35, 36, 37, 38, 39, 40, 41, 42, 43, 44, 45, 46, 47, 48, 49, 50, 51, 52, 53, 54, 55, 56, 57, 58, 59, 60, 61, 62, 63, 64, 65, 66, 67], "CsaImage.RFSWDDataType": ["predicted", "predicted", "predicted", "predicted", "predicted", "predicted", "predicted", "predicted", "predicted", "predicted", "predicted", "predicted", "predicted", "predicted", "predicted", "predicted", "measured", "predicted", "measured", "predicted", "measured", "predicted", "measured", "predicted", "measured", "predicted", "measured", "predicted", "measured", "predicted", "measured", "predicted", "measured", "predicted", "measured", "predicted", "measured", "predicted", "measured", "predicted", "measured", "predicted", "measured", "predicted", "measured", "predicted", "measured", "predicted", "measured", "predicted", "measured", "predicted", "measured", "predicted", "measured", "predicted", "measured", "predicted", "measured", "predicted", "measured", "predicted", "measured", "predicted", "measured", "predicted", "measured", "predicted"], "CsaImage.SlicePosition_PCS": [[-116.23044481, -118.95075092, 38.88564022], [-116.35186788, -117.50824413, 40.79991062], [-116.47329094, -116.06573734, 42.71418102], [-116.59471401, -114.62323245, 44.62845142], [-116.71613704, -113.18072566, 46.54272373], [-116.83756008, -111.73821887, 48.45699318], [-116.95898315, -110.29571208, 50.37126358], [-117.08040621, -108.85320625, 52.28553493], [-117.20182926, -107.41069946, 54.19980534], [-117.32325232, -105.96819362, 56.11407574], [-117.44467538, -104.52568683, 58.02834614], [-117.56609844, -103.08318099, 59.94261702], [-117.68752148, -101.6406742, 61.85688754], [-117.80894455, -100.19816789, 63.77115812], [-117.93036761, -98.75566158, 65.6854287], [-118.05179068, -97.31315526, 67.5996991], [-118.17321368, -95.87064895, 69.51396997], [-118.29463681, -94.42814258, 71.42824085], [-118.41605981, -92.98563626, 73.34251125], [-118.53748282, -91.54312989, 75.25678165], [-118.65890595, -90.10062346, 77.17105206], [-118.78032895, -88.65811738, 79.08532246], [-118.90175208, -87.21561059, 80.99959286], [-119.02317508, -85.77310428, 82.91386326], [-119.14459821, -84.33059844, 84.82813366], [-119.26602133, -82.88809165, 86.74240597], [-119.38744434, -81.44558582, 88.65667637], [-119.50886735, -80.00307903, 90.57094677], [-119.63029035, -78.56057319, 92.48521717], [-119.75171336, -77.11806545, 94.39948757], [-119.8731366, -75.67556056, 96.31375988], [-119.99455961, -74.23305377, 98.22802837], [-120.11598261, -72.79054698, 100.14230068], [-120.23740562, -71.34804019, 102.05656918], [-120.35882863, -69.90553531, 103.97084148], [-120.48025187, -68.46302852, 105.88510998], [-120.60167488, -67.02052173, 107.79938229], [-120.72309788, -65.57801494, 109.71365078], [-120.84452089, -64.13551006, 111.62792309], [-120.9659439, -62.69300327, 113.54219158], [-121.08736714, -61.25049648, 115.45646389], [-121.20879015, -59.80799159, 117.3707362], [-121.33021339, -58.3654829, 119.28500469], [-121.45163616, -56.92297801, 121.199277], [-121.5730594, -55.48046932, 123.11354549], [-121.69448217, -54.03796443, 125.0278178], [-121.81590541, -52.59545955, 126.9420863], [-121.93732866, -51.15295085, 128.85635479], [-122.05875143, -49.71044597, 130.77063091], [-122.18017467, -48.26794109, 132.68489941], [-122.30159744, -46.82543239, 134.5991679], [-122.42302068, -45.38292751, 136.51344402], [-122.54444393, -43.94041881, 138.42771252], [-122.6658667, -42.49791393, 140.34198101], [-122.78728994, -41.05540904, 142.2562495], [-122.90871271, -39.61290035, 144.17052563], [-123.03013595, -38.17039546, 146.08479412], [-123.1515592, -36.72788677, 147.99906261], [-123.27298196, -35.28538188, 149.91333111], [-123.39440521, -33.842877, 151.82760723], [-123.51582798, -32.4003683, 153.74187572], [-123.63725122, -30.95786342, 155.65614422], [-123.75867446, -29.51535854, 157.57042034], [-123.88009723, -28.07284984, 159.48468884], [-124.00152048, -26.63034496, 161.39895733], [-124.12294324, -25.18784007, 163.31322582], [-124.24436649, -23.74532756, 165.22750195], [-124.36578973, -22.30282268, 167.14177044]], "CsaImage.TimeAfterStart": [1.1, 0.735, 1.11, 0.745, 1.1225, 0.755, 1.1325, 0.7675, 1.1425, 0.7775, 1.155, 0.7875, 1.165, 0.8, 1.175, 0.81, 1.185, 0.82, 1.1975, 0.8325, 1.2075, 0.8425, 1.2175, 0.8525, 1.23, 0.8625, 1.24, 0.875, 1.25, 0.885, 1.2625, 0.895, 1.2725, 0.9075, 1.2825, 0.9175, 1.2925, 0.9275, 1.305, 0.94, 1.315, 0.95, 1.325, 0.96, 1.3375, 0.97, 1.3475, 0.9825, 1.3575, 0.9925, 1.37, 1.0025, 1.38, 1.015, 1.39, 1.025, 1.4, 1.035, 1.4125, 1.0475, 1.4225, 1.0575, 1.4325, 1.0675, 1.445, 1.0775, 1.455, 1.09], "ImagePositionPatient": [[-116.23044481105, -118.95075091678, 38.88564022053], [-116.35186787671, -117.50824412662, 40.799910621531], [-116.47329094237, -116.06573733645, 42.714181022532], [-116.59471400804, -114.62323245364, 44.628451423533], [-116.7161370439, -113.18072566348, 46.542723731883], [-116.83756007976, -111.73821887332, 48.45699317921], [-116.95898314542, -110.29571208316, 50.37126358021], [-117.08040621108, -108.85320624667, 52.285534934886], [-117.20182926184, -107.41069945651, 54.199805335887], [-117.32325232005, -105.96819362002, 56.114075736888], [-117.44467537826, -104.52568682986, 58.028346137889], [-117.56609844393, -103.08318099338, 59.942617015727], [-117.68752147979, -101.64067420321, 61.856887535937], [-117.80894454545, -100.19816788989, 63.771158115752], [-117.93036761111, -98.755661576567, 65.685428695567], [-118.05179067677, -97.313155263243, 67.599699096568], [-118.17321368283, -95.870648949919, 69.513969974406], [-118.2946368081, -94.42814257699, 71.428240852244], [-118.41605981416, -92.985636263666, 73.342511253245], [-118.53748282021, -91.543129890738, 75.256781654246], [-118.65890594548, -90.100623458204, 77.171052055247], [-118.78032895154, -88.658117383299, 79.085322456248], [-118.90175207681, -87.215610593138, 80.999592857249], [-119.02317508286, -85.773104279814, 82.91386325825], [-119.14459820813, -84.330598443327, 84.828133659251], [-119.2660213334, -82.888091653166, 86.742405967601], [-119.38744433946, -81.445585816679, 88.656676368602], [-119.50886734551, -80.003079026518, 90.570946769603], [-119.63029035157, -78.560573190031, 92.485217170604], [-119.75171335763, -77.118065446196, 94.399487571605], [-119.87313660211, -75.675560563383, 96.313759879954], [-119.99455960816, -74.233053773222, 98.228028373606], [-120.11598261422, -72.790546983061, 100.14230068196], [-120.23740562028, -71.3480401929, 102.05656917561], [-120.35882862634, -69.905535310087, 103.97084148396], [-120.48025187081, -68.463028519926, 105.88510997761], [-120.60167487687, -67.020521729765, 107.79938228596], [-120.72309788293, -65.578014939604, 109.71365077961], [-120.84452088899, -64.135510056791, 111.62792308796], [-120.96594389504, -62.69300326663, 113.54219158161], [-121.08736713952, -61.250496476469, 115.45646388996], [-121.20879014558, -59.807991593657, 117.37073619831], [-121.33021339005, -58.365482896147, 119.28500469197], [-121.45163615769, -56.922978013334, 121.19927700032], [-121.57305940217, -55.480469315825, 123.11354549397], [-121.69448216981, -54.037964433012, 125.02781780232], [-121.81590541429, -52.5954595502, 126.94208629597], [-121.93732865876, -51.15295085269, 128.85635478962], [-122.0587514264, -49.710445969877, 130.77063091267], [-122.18017467088, -48.267941087065, 132.68489940632], [-122.30159743852, -46.825432389555, 134.59916789997], [-122.42302068299, -45.382927506743, 136.51344402302], [-122.54444392747, -43.940418809233, 138.42771251667], [-122.66586669511, -42.49791392642, 140.34198101033], [-122.78728993958, -41.055409043608, 142.25624950398], [-122.90871270722, -39.612900346098, 144.17052562702], [-123.0301359517, -38.170395463286, 146.08479412068], [-123.15155919618, -36.727886765776, 147.99906261433], [-123.27298196382, -35.285381882963, 149.91333110798], [-123.39440520829, -33.842877000151, 151.82760723103], [-123.51582797593, -32.400368302641, 153.74187572468], [-123.63725122041, -30.957863419829, 155.65614421833], [-123.75867446488, -29.515358537016, 157.57042034138], [-123.88009723252, -28.072849839506, 159.48468883503], [-124.001520477, -26.630344956694, 161.39895732868], [-124.12294324464, -25.187840073881, 163.31322582234], [-124.24436648911, -23.745327561674, 165.22750194538], [-124.36578973359, -22.302822678862, 167.14177043904]], "InstanceCreationTime": ["172245.296000", "172245.062000", "172245.296000", "172245.203000", "172245.296000", "172245.218000", "172245.296000", "172245.218000", "172245.296000", "172245.218000", "172245.312000", "172245.218000", "172245.312000", "172245.218000", "172245.312000", "172245.218000", "172245.312000", "172245.218000", "172245.312000", "172245.218000", "172245.312000", "172245.218000", "172245.312000", "172245.234000", "172245.312000", "172245.250000", "172245.312000", "172245.265000", "172245.328000", "172245.265000", "172245.328000", "172245.265000", "172245.328000", "172245.265000", "172245.328000", "172245.265000", "172245.328000", "172245.265000", "172245.328000", "172245.265000", "172245.328000", "172245.265000", "172245.328000", "172245.265000", "172245.343000", "172245.281000", "172245.343000", "172245.281000", "172245.343000", "172245.281000", "172245.343000", "172245.281000", "172245.359000", "172245.281000", "172245.359000", "172245.281000", "172245.359000", "172245.281000", "172245.375000", "172245.281000", "172245.375000", "172245.281000", "172245.390000", "172245.296000", "172245.390000", "172245.296000", "172245.390000", "172245.296000"], "InstanceNumber": [1, 2, 3, 4, 5, 6, 7, 8, 9, 10, 11, 12, 13, 14, 15, 16, 17, 18, 19, 20, 21, 22, 23, 24, 25, 26, 27, 28, 29, 30, 31, 32, 33, 34, 35, 36, 37, 38, 39, 40, 41, 42, 43, 44, 45, 46, 47, 48, 49, 50, 51, 52, 53, 54, 55, 56, 57, 58, 59, 60, 61, 62, 63, 64, 65, 66, 67, 68], "LargestImagePixelValue": [4094, 4093, 4094, 4094, 4092, 4092, 4092, 4094, 4093, 4093, 4093, 4094, 4093, 4094, 4094, 4093, 4094, 4094, 4094, 4093, 4090, 4094, 4094, 4090, 4088, 4094, 4093, 4094, 4094, 4093, 4094, 4094, 4094, 4092, 4086, 4093, 4094, 4094, 4094, 4094, 4091, 4093, 4093, 4094, 4093, 4094, 4094, 4094, 4094, 4094, 4094, 4093, 4094, 4094, 4092, 4094, 4090, 4094, 4094, 4094, 4094, 4094, 4094, 4093, 4094, 4094, 4094, 4094], "SliceLocation": [-34.598552750714, -32.198552632239, -29.798552513763, -27.398553541688, -24.998551903394, -22.598552547089, -20.198552428613, -17.798552122675, -15.398552004953, -12.998552460055, -10.598552341956, -8.1985524163493, -5.7985522042983, -3.3985522297985, -0.9985522552986, 1.4014475765769, 3.8014477857683, 6.2014480368159, 8.6014478656759, 11.001447730361, 13.401447636902, 15.801447322462, 18.201447443953, 20.601447272813, 23.001446821104, 25.401448463921, 27.801448006181, 30.201448121641, 32.601447663901, 35.001448352562, 37.401448855009, 39.801447449144, 42.20144908593, 44.601447680064, 47.001448170449, 49.401446776646, 51.801448413432, 54.201447007567, 56.601447497951, 59.001446092086, 61.401447740934, 63.801448231319, 66.201447983917, 68.601448462239, 71.001448214838, 73.40144869316, 75.801446152956, 78.201445905554, 80.601449426528, 83.001446886324, 85.401446614797, 87.801450159895, 90.201449912493, 92.601447348165, 95.001444807961, 97.401450621736, 99.801448081532, 102.20144783413, 104.6014452698, 107.0014488149, 109.40144854337, 111.80144600317, 114.20144954827, 116.60144927674, 119.00144673654, 121.40144417221, 123.80145230291, 126.20144976271], "SmallestImagePixelValue": [2, 0, 2, 1, 1, 1, 0, 3, 0, 0, 1, 0, 0, 2, 4, 1, 4, 0, 1, 0, 0, 3, 1, 1, 8, 4, 1, 1, 1, 0, 0, 10, 3, 2, 1, 1, 2, 0, 3, 4, 1, 2, 1, 3, 0, 0, 9, 0, 3, 1, 2, 1, 1, 1, 0, 1, 0, 1, 2, 0, 0, 0, 1, 3, 0, 1, 1, 0], "WindowCenter": [-226.0, -230.0, -258.0, -332.0, -448.0, -290.0, -436.0, -500.0, -524.0, -612.0, -572.0, -536.0, -524.0, -512.0, -524.0, -508.0, -494.0, -456.0, -404.0, -404.0, -388.0, -356.0, -332.0, -304.0, -276.0, -236.0, -222.0, -212.0, -206.0, -204.0, -228.0, -224.0, -228.0, -192.0, -172.0, -208.0, -168.0, -156.0, -136.0, -132.0, -162.0, -156.0, -164.0, -154.0, -170.0, -156.0, -206.0, -202.0, -198.0, -218.0, -220.0, -238.0, -286.0, -346.0, -302.0, -294.0, -356.0, -334.0, -352.0, -404.0, -418.0, -456.0, -498.0, -474.0, -462.0, -482.0, -430.0, -466.0], "WindowWidth": [6242.0, 6256.0, 6154.0, 5790.0, 5066.0, 5850.0, 5016.0, 5024.0, 4960.0, 4858.0, 4778.0, 4764.0, 4782.0, 4758.0, 4720.0, 4672.0, 4624.0, 4520.0, 4464.0, 4394.0, 4344.0, 4298.0, 4286.0, 4246.0, 4164.0, 4118.0, 4076.0, 4054.0, 4076.0, 4066.0, 4092.0, 4092.0, 4108.0, 4124.0, 4128.0, 4190.0, 4226.0, 4238.0, 4220.0, 4234.0, 4248.0, 4268.0, 4282.0, 4262.0, 4258.0, 4288.0, 4234.0, 4258.0, 4246.0, 4294.0, 4278.0, 4310.0, 4300.0, 4352.0, 4334.0, 4392.0, 4436.0, 4468.0, 4584.0, 4660.0, 4732.0, 4794.0, 4820.0, 4890.0, 4936.0, 4980.0, 5024.0, 5076.0]}}}