{
    "AcquisitionMatrixPE": 96,
    "AcquisitionNumber": 1,
    "AcquisitionTime": "07:41:25.235000",
    "BandwidthPerPixelPhaseEncode": 33.602,
    "BaseResolution": 96,
    "BodyPartExamined": "BRAIN",
    "ConsistencyInfo": "N4_VD11D_LATEST_20110129",
    "ConversionSoftware": "dcm2niix",
    "ConversionSoftwareVersion": "v1.0.20210317",
    "DerivedVendorReportedEchoSpacing": 0.000620003,
    "DeviceSerialNumber": "45239",
    "DwellTime": 2.6e-06,
    "EchoTime": 0.03,
    "EchoTrainLength": 48,
    "EffectiveEchoSpacing": 0.000310001,
    "FlipAngle": 63,
    "ImageComments": "Unaliased MB4/PE3",
    "ImageOrientationPatientDICOM": [
        0.999607,
        -0.0251279,
        0.012419,
        0.0280293,
        0.896134,
        -0.442897
    ],
    "ImageType": [
        "ORIGINAL",
        "PRIMARY",
        "M",
        "ND",
        "NORM",
        "MOSAIC"
    ],
    "ImagingFrequency": 123.193,
    "InPlanePhaseEncodingDirectionDICOM": "COL",
    "InstitutionAddress": "E 24th St. 100,Austin,Southmiddle,US,78712",
    "InstitutionName": "Univ of Texas at Austin",
    "InstitutionalDepartmentName": "IRC",
    "MRAcquisitionType": "2D",
    "MagneticFieldStrength": 3,
    "Manufacturer": "Siemens",
    "ManufacturersModelName": "Skyra",
    "Modality": "MR",
    "MultibandAccelerationFactor": 4,
    "ParallelReductionFactorInPlane": 2,
    "PartialFourier": 1,
    "PatientPosition": "HFS",
    "PercentPhaseFOV": 100,
    "PercentSampling": 100,
    "PhaseEncodingDirection": "j-",
    "PhaseEncodingSteps": 96,
    "PhaseResolution": 1,
    "PixelBandwidth": 2005,
    "ProcedureStepDescription": "Poldrack2^self-scanning",
    "ProtocolName": "Resting State fMRI MBEPI_matrix96_BW2004",
    "PulseSequenceDetails": "%CustomerSeq%\\cmrr_mbep2d_bold",
    "ReceiveCoilActiveElements": "HEA;HEP",
    "ReceiveCoilName": "Head_32",
    "ReconMatrixPE": 96,
    "RefLinesPE": 94,
    "RepetitionTime": 1.16,
    "SAR": 0.0934372,
    "ScanOptions": "FS",
    "ScanningSequence": "EP",
    "SequenceName": "epfid2d1_96",
    "SequenceVariant": "SK",
    "SeriesDescription": "Resting State fMRI MBEPI_matrix96_BW2004",
    "SeriesNumber": 6,
    "ShimSetting": [
        -2778,
        8056,
        -15446,
        197,
        -239,
        171,
        182,
        -97
    ],
    "SliceThickness": 2,
    "SliceTiming": [
        0,
        0.5,
        0.9975,
        0.3575,
        0.855,
        0.215,
        0.7125,
        0.0725,
        0.57,
        1.07,
        0.4275,
        0.9275,
        0.285,
        0.785,
        0.1425,
        0.6425,
        0,
        0.5,
        0.9975,
        0.3575,
        0.855,
        0.215,
        0.7125,
        0.0725,
        0.57,
        1.07,
        0.4275,
        0.9275,
        0.285,
        0.785,
        0.1425,
        0.6425,
        0,
        0.5,
        0.9975,
        0.3575,
        0.855,
        0.215,
        0.7125,
        0.0725,
        0.57,
        1.07,
        0.4275,
        0.9275,
        0.285,
        0.785,
        0.1425,
        0.6425,
        0,
        0.5,
        0.9975,
        0.3575,
        0.855,
        0.215,
        0.7125,
        0.0725,
        0.57,
        1.07,
        0.4275,
        0.9275,
        0.285,
        0.785,
        0.1425,
        0.6425
    ],
    "SoftwareVersions": "syngo MR D11",
    "SpacingBetweenSlices": 2.4,
    "StationName": "AWP45239",
    "TaskName": "Resting fmri",
    "TotalReadoutTime": 0.0294501,
    "TxRefAmp": 330.642,
    "WipMemBlock": "670952d0-8a94-471d-a564-92f230175602||Sequence: VD11D r206; Feb 13 2013 18:52:04 by eja",
    "dcmmeta_affine": [
        [
            -2.3948919773101807,
            0.06715354323387146,
            -5.551799020508952e-09,
            114.65318298339844
        ],
        [
            0.06020224094390869,
            2.1469881534576416,
            -1.063370943069458,
            -91.51754760742188
        ],
        [
            0.0297537948936224,
            1.0611076354980469,
            2.1515674591064453,
            -89.59342956542969
        ],
        [
            0.0,
            0.0,
            0.0,
            1.0
        ]
    ],
    "dcmmeta_reorient_transform": [
        [
            0.0,
            -1.0,
            0.0,
            95.0
        ],
        [
            1.0,
            0.0,
            0.0,
            0.0
        ],
        [
            0.0,
            0.0,
            1.0,
            0.0
        ],
        [
            0.0,
            0.0,
            0.0,
            1.0
        ]
    ],
    "dcmmeta_shape": [
        96,
        96,
        64,
        518
    ],
    "dcmmeta_slice_dim": 2,
    "dcmmeta_version": 0.6,
    "global": {
        "const": {
            "AcquisitionMatrix": [
                96,
                0,
                0,
                96
            ],
            "AngioFlag": "N",
            "BitsAllocated": 16,
            "BitsStored": 16,
            "BodyPartExamined": "BRAIN",
            "Columns": 768,
            "EchoNumbers": 1,
            "EchoTime": 30.0,
            "EchoTrainLength": 48,
            "FlipAngle": 63.0,
            "HighBit": 15,
            "ImageOrientationPatient": [
                0.99960710185282,
                -0.0251278923596,
                0.01241897543938,
                0.02802930476128,
                0.89613420119619,
                -0.4428971116649
            ],
            "ImagePositionPatient": [
                -948.28004908683,
                -813.60637809643,
                357.74668218785
            ],
            "ImageType": [
                "ORIGINAL",
                "PRIMARY",
                "M",
                "ND",
                "NORM",
                "MOSAIC"
            ],
            "ImagedNucleus": "1H",
            "ImagingFrequency": 123.1933,
            "InPlanePhaseEncodingDirection": "COL",
            "MRAcquisitionType": "2D",
            "MagneticFieldStrength": 3.0,
            "Manufacturer": "SIEMENS",
            "ManufacturerModelName": "Skyra",
            "Modality": "MR",
            "NumberOfAverages": 1.0,
            "NumberOfPhaseEncodingSteps": 96,
            "PercentPhaseFieldOfView": 100.0,
            "PercentSampling": 100.0,
            "PerformedProcedureStepStartTime": "072405.578000",
            "PhotometricInterpretation": "MONOCHROME2",
            "PixelBandwidth": 2005.0,
            "PixelRepresentation": 0,
            "PixelSpacing": [
                2.3958332538605,
                2.3958332538605
            ],
            "ProtocolName": "Resting State fMRI MBEPI_matrix96_BW2004",
            "RepetitionTime": 1160.0,
            "Rows": 768,
            "SAR": 0.09343719406827,
            "SamplesPerPixel": 1,
            "ScanOptions": "FS",
            "ScanningSequence": "EP",
            "SequenceName": "epfid2d1_96",
            "SequenceVariant": "SK",
            "SeriesDescription": "Resting State fMRI MBEPI_matrix96_BW2004",
            "SeriesNumber": 6,
            "SeriesTime": "074203.828000",
            "SliceLocation": -39.770505511133,
            "SliceThickness": 2.0,
            "SmallestImagePixelValue": 0,
            "SoftwareVersions": "syngo MR D11",
            "SpacingBetweenSlices": 2.4000000631671,
            "SpecificCharacterSet": "ISO_IR 100",
            "StudyID": "1",
            "StudyTime": "072405.546000",
            "TransmitCoilName": "Body",
            "VariableFlipAngleFlag": "N",
            "WindowCenterWidthExplanation": "Algo1",
            "dBdt": 0.0
        },
        "slices": {}
    },
    "time": {
        "samples": {
            "AcquisitionNumber": [
                1,
                2,
                3,
                4,
                5,
                6,
                7,
                8,
                9,
                10,
                11,
                12,
                13,
                14,
                15,
                16,
                17,
                18,
                19,
                20,
                21,
                22,
                23,
                24,
                25,
                26,
                27,
                28,
                29,
                30,
                31,
                32,
                33,
                34,
                35,
                36,
                37,
                38,
                39,
                40,
                41,
                42,
                43,
                44,
                45,
                46,
                47,
                48,
                49,
                50,
                51,
                52,
                53,
                54,
                55,
                56,
                57,
                58,
                59,
                60,
                61,
                62,
                63,
                64,
                65,
                66,
                67,
                68,
                69,
                70,
                71,
                72,
                73,
                74,
                75,
                76,
                77,
                78,
                79,
                80,
                81,
                82,
                83,
                84,
                85,
                86,
                87,
                88,
                89,
                90,
                91,
                92,
                93,
                94,
                95,
                96,
                97,
                98,
                99,
                100,
                101,
                102,
                103,
                104,
                105,
                106,
                107,
                108,
                109,
                110,
                111,
                112,
                113,
                114,
                115,
                116,
                117,
                118,
                119,
                120,
                121,
                122,
                123,
                124,
                125,
                126,
                127,
                128,
                129,
                130,
                131,
                132,
                133,
                134,
                135,
                136,
                137,
                138,
                139,
                140,
                141,
                142,
                143,
                144,
                145,
                146,
                147,
                148,
                149,
                150,
                151,
                152,
                153,
                154,
                155,
                156,
                157,
                158,
                159,
                160,
                161,
                162,
                163,
                164,
                165,
                166,
                167,
                168,
                169,
                170,
                171,
                172,
                173,
                174,
                175,
                176,
                177,
                178,
                179,
                180,
                181,
                182,
                183,
                184,
                185,
                186,
                187,
                188,
                189,
                190,
                191,
                192,
                193,
                194,
                195,
                196,
                197,
                198,
                199,
                200,
                201,
                202,
                203,
                204,
                205,
                206,
                207,
                208,
                209,
                210,
                211,
                212,
                213,
                214,
                215,
                216,
                217,
                218,
                219,
                220,
                221,
                222,
                223,
                224,
                225,
                226,
                227,
                228,
                229,
                230,
                231,
                232,
                233,
                234,
                235,
                236,
                237,
                238,
                239,
                240,
                241,
                242,
                243,
                244,
                245,
                246,
                247,
                248,
                249,
                250,
                251,
                252,
                253,
                254,
                255,
                256,
                257,
                258,
                259,
                260,
                261,
                262,
                263,
                264,
                265,
                266,
                267,
                268,
                269,
                270,
                271,
                272,
                273,
                274,
                275,
                276,
                277,
                278,
                279,
                280,
                281,
                282,
                283,
                284,
                285,
                286,
                287,
                288,
                289,
                290,
                291,
                292,
                293,
                294,
                295,
                296,
                297,
                298,
                299,
                300,
                301,
                302,
                303,
                304,
                305,
                306,
                307,
                308,
                309,
                310,
                311,
                312,
                313,
                314,
                315,
                316,
                317,
                318,
                319,
                320,
                321,
                322,
                323,
                324,
                325,
                326,
                327,
                328,
                329,
                330,
                331,
                332,
                333,
                334,
                335,
                336,
                337,
                338,
                339,
                340,
                341,
                342,
                343,
                344,
                345,
                346,
                347,
                348,
                349,
                350,
                351,
                352,
                353,
                354,
                355,
                356,
                357,
                358,
                359,
                360,
                361,
                362,
                363,
                364,
                365,
                366,
                367,
                368,
                369,
                370,
                371,
                372,
                373,
                374,
                375,
                376,
                377,
                378,
                379,
                380,
                381,
                382,
                383,
                384,
                385,
                386,
                387,
                388,
                389,
                390,
                391,
                392,
                393,
                394,
                395,
                396,
                397,
                398,
                399,
                400,
                401,
                402,
                403,
                404,
                405,
                406,
                407,
                408,
                409,
                410,
                411,
                412,
                413,
                414,
                415,
                416,
                417,
                418,
                419,
                420,
                421,
                422,
                423,
                424,
                425,
                426,
                427,
                428,
                429,
                430,
                431,
                432,
                433,
                434,
                435,
                436,
                437,
                438,
                439,
                440,
                441,
                442,
                443,
                444,
                445,
                446,
                447,
                448,
                449,
                450,
                451,
                452,
                453,
                454,
                455,
                456,
                457,
                458,
                459,
                460,
                461,
                462,
                463,
                464,
                465,
                466,
                467,
                468,
                469,
                470,
                471,
                472,
                473,
                474,
                475,
                476,
                477,
                478,
                479,
                480,
                481,
                482,
                483,
                484,
                485,
                486,
                487,
                488,
                489,
                490,
                491,
                492,
                493,
                494,
                495,
                496,
                497,
                498,
                499,
                500,
                501,
                502,
                503,
                504,
                505,
                506,
                507,
                508,
                509,
                510,
                511,
                512,
                513,
                514,
                515,
                516,
                517,
                518
            ],
            "AcquisitionTime": [
                "074125.235000",
                "074154.232500",
                "074155.392500",
                "074156.552500",
                "074157.712500",
                "074158.872500",
                "074200.032500",
                "074201.192500",
                "074202.352500",
                "074203.512500",
                "074204.672500",
                "074205.832500",
                "074206.992500",
                "074208.152500",
                "074209.312500",
                "074210.472500",
                "074211.635000",
                "074212.795000",
                "074213.955000",
                "074215.115000",
                "074216.275000",
                "074217.435000",
                "074218.595000",
                "074219.755000",
                "074220.915000",
                "074222.075000",
                "074223.235000",
                "074224.395000",
                "074225.555000",
                "074226.715000",
                "074227.875000",
                "074229.035000",
                "074230.195000",
                "074231.355000",
                "074232.515000",
                "074233.675000",
                "074234.835000",
                "074235.995000",
                "074237.155000",
                "074238.315000",
                "074239.475000",
                "074240.635000",
                "074241.795000",
                "074242.955000",
                "074244.115000",
                "074245.275000",
                "074246.435000",
                "074247.595000",
                "074248.755000",
                "074249.915000",
                "074251.075000",
                "074252.235000",
                "074253.395000",
                "074254.555000",
                "074255.715000",
                "074256.875000",
                "074258.035000",
                "074259.195000",
                "074300.355000",
                "074301.515000",
                "074302.675000",
                "074303.835000",
                "074304.995000",
                "074306.155000",
                "074307.315000",
                "074308.475000",
                "074309.635000",
                "074310.795000",
                "074311.955000",
                "074313.115000",
                "074314.275000",
                "074315.435000",
                "074316.595000",
                "074317.755000",
                "074318.915000",
                "074320.075000",
                "074321.235000",
                "074322.395000",
                "074323.555000",
                "074324.715000",
                "074325.875000",
                "074327.035000",
                "074328.195000",
                "074329.355000",
                "074330.515000",
                "074331.675000",
                "074332.835000",
                "074333.995000",
                "074335.155000",
                "074336.315000",
                "074337.475000",
                "074338.635000",
                "074339.795000",
                "074340.955000",
                "074342.115000",
                "074343.275000",
                "074344.435000",
                "074345.595000",
                "074346.755000",
                "074347.915000",
                "074349.075000",
                "074350.235000",
                "074351.395000",
                "074352.555000",
                "074353.715000",
                "074354.875000",
                "074356.035000",
                "074357.195000",
                "074358.355000",
                "074359.515000",
                "074400.675000",
                "074401.835000",
                "074402.995000",
                "074404.155000",
                "074405.315000",
                "074406.475000",
                "074407.635000",
                "074408.795000",
                "074409.955000",
                "074411.115000",
                "074412.275000",
                "074413.435000",
                "074414.595000",
                "074415.755000",
                "074416.915000",
                "074418.075000",
                "074419.235000",
                "074420.395000",
                "074421.555000",
                "074422.715000",
                "074423.875000",
                "074425.035000",
                "074426.195000",
                "074427.355000",
                "074428.515000",
                "074429.675000",
                "074430.835000",
                "074431.995000",
                "074433.155000",
                "074434.315000",
                "074435.475000",
                "074436.635000",
                "074437.795000",
                "074438.955000",
                "074440.115000",
                "074441.275000",
                "074442.435000",
                "074443.595000",
                "074444.755000",
                "074445.915000",
                "074447.075000",
                "074448.235000",
                "074449.395000",
                "074450.555000",
                "074451.715000",
                "074452.875000",
                "074454.035000",
                "074455.195000",
                "074456.355000",
                "074457.515000",
                "074458.675000",
                "074459.835000",
                "074500.995000",
                "074502.155000",
                "074503.315000",
                "074504.475000",
                "074505.635000",
                "074506.795000",
                "074507.955000",
                "074509.115000",
                "074510.275000",
                "074511.435000",
                "074512.595000",
                "074513.755000",
                "074514.915000",
                "074516.075000",
                "074517.235000",
                "074518.395000",
                "074519.555000",
                "074520.715000",
                "074521.875000",
                "074523.035000",
                "074524.195000",
                "074525.355000",
                "074526.515000",
                "074527.675000",
                "074528.835000",
                "074529.995000",
                "074531.155000",
                "074532.315000",
                "074533.475000",
                "074534.635000",
                "074535.795000",
                "074536.955000",
                "074538.115000",
                "074539.275000",
                "074540.435000",
                "074541.595000",
                "074542.755000",
                "074543.915000",
                "074545.075000",
                "074546.235000",
                "074547.395000",
                "074548.555000",
                "074549.715000",
                "074550.875000",
                "074552.035000",
                "074553.195000",
                "074554.355000",
                "074555.515000",
                "074556.675000",
                "074557.835000",
                "074558.995000",
                "074600.155000",
                "074601.315000",
                "074602.475000",
                "074603.635000",
                "074604.795000",
                "074605.955000",
                "074607.115000",
                "074608.275000",
                "074609.435000",
                "074610.595000",
                "074611.755000",
                "074612.915000",
                "074614.075000",
                "074615.235000",
                "074616.395000",
                "074617.555000",
                "074618.715000",
                "074619.875000",
                "074621.035000",
                "074622.195000",
                "074623.355000",
                "074624.515000",
                "074625.675000",
                "074626.835000",
                "074627.995000",
                "074629.155000",
                "074630.315000",
                "074631.475000",
                "074632.635000",
                "074633.795000",
                "074634.955000",
                "074636.115000",
                "074637.275000",
                "074638.435000",
                "074639.595000",
                "074640.755000",
                "074641.915000",
                "074643.075000",
                "074644.235000",
                "074645.395000",
                "074646.555000",
                "074647.715000",
                "074648.875000",
                "074650.035000",
                "074651.195000",
                "074652.355000",
                "074653.515000",
                "074654.675000",
                "074655.835000",
                "074656.995000",
                "074658.155000",
                "074659.315000",
                "074700.475000",
                "074701.637500",
                "074702.797500",
                "074703.957500",
                "074705.117500",
                "074706.277500",
                "074707.437500",
                "074708.597500",
                "074709.757500",
                "074710.917500",
                "074712.077500",
                "074713.237500",
                "074714.397500",
                "074715.557500",
                "074716.717500",
                "074717.877500",
                "074719.037500",
                "074720.197500",
                "074721.357500",
                "074722.517500",
                "074723.677500",
                "074724.837500",
                "074725.997500",
                "074727.157500",
                "074728.317500",
                "074729.477500",
                "074730.637500",
                "074731.797500",
                "074732.957500",
                "074734.117500",
                "074735.277500",
                "074736.437500",
                "074737.597500",
                "074738.757500",
                "074739.917500",
                "074741.077500",
                "074742.237500",
                "074743.397500",
                "074744.557500",
                "074745.717500",
                "074746.877500",
                "074748.037500",
                "074749.197500",
                "074750.357500",
                "074751.517500",
                "074752.677500",
                "074753.837500",
                "074754.997500",
                "074756.157500",
                "074757.317500",
                "074758.477500",
                "074759.637500",
                "074800.797500",
                "074801.957500",
                "074803.117500",
                "074804.277500",
                "074805.437500",
                "074806.597500",
                "074807.757500",
                "074808.917500",
                "074810.077500",
                "074811.237500",
                "074812.397500",
                "074813.557500",
                "074814.717500",
                "074815.877500",
                "074817.037500",
                "074818.197500",
                "074819.357500",
                "074820.517500",
                "074821.677500",
                "074822.837500",
                "074823.997500",
                "074825.157500",
                "074826.317500",
                "074827.477500",
                "074828.637500",
                "074829.797500",
                "074830.957500",
                "074832.117500",
                "074833.277500",
                "074834.437500",
