{"AcquisitionMatrixPE": 96, "AcquisitionNumber": 1, "AcquisitionTime": "07:53:9.645000", "BandwidthPerPixelPhaseEncode": 33.602, "BaseResolution": 96, "BodyPartExamined": "BRAIN", "ConsistencyInfo": "N4_VD11D_LATEST_20110129", "ConversionSoftware": "dcm2niix", "ConversionSoftwareVersion": "v1.0.20210317", "DerivedVendorReportedEchoSpacing": 0.000620003, "DeviceSerialNumber": "45239", "DwellTime": 2.6e-06, "EchoTime": 0.03, "EchoTrainLength": 48, "EffectiveEchoSpacing": 0.000310001, "FlipAngle": 63, "ImageComments": "Unaliased MB4/PE3", "ImageOrientationPatientDICOM": [0.999607, -0.0251279, 0.012419, 0.0280293, 0.896134, -0.442897], "ImageType": ["ORIGINAL", "PRIMARY", "M", "ND", "NORM", "MOSAIC"], "ImagingFrequency": 123.193, "InPlanePhaseEncodingDirectionDICOM": "COL", "InstitutionAddress": "E 24th St. 100,Austin,Southmiddle,US,78712", "InstitutionName": "Univ of Texas at Austin", "InstitutionalDepartmentName": "IRC", "MRAcquisitionType": "2D", "MagneticFieldStrength": 3, "Manufacturer": "Siemens", "ManufacturersModelName": "Skyra", "Modality": "MR", "MultibandAccelerationFactor": 4, "ParallelReductionFactorInPlane": 2, "PartialFourier": 1, "PatientPosition": "HFS", "PercentPhaseFOV": 100, "PercentSampling": 100, "PhaseEncodingDirection": "j-", "PhaseEncodingSteps": 96, "PhaseResolution": 1, "PixelBandwidth": 2005, "ProcedureStepDescription": "Poldrack2^self-scanning", "ProtocolName": "Breath Hold", "PulseSequenceDetails": "%CustomerSeq%\\cmrr_mbep2d_bold", "ReceiveCoilActiveElements": "HEA;HEP", "ReceiveCoilName": "Head_32", "ReconMatrixPE": 96, "RefLinesPE": 94, "RepetitionTime": 1.16, "SAR": 0.0920385, "ScanOptions": "FS", "ScanningSequence": "EP", "SequenceName": "epfid2d1_96", "SequenceVariant": "SK", "SeriesDescription": "Breath Hold", "SeriesNumber": 8, "ShimSetting": [-2778, 8056, -15446, 197, -239, 171, 182, -97], "SliceThickness": 2, "SliceTiming": [0, 0.5, 0.9975, 0.3575, 0.855, 0.215, 0.7125, 0.0725, 0.57, 1.07, 0.4275, 0.9275, 0.285, 0.785, 0.1425, 0.6425, 0, 0.5, 0.9975, 0.3575, 0.855, 0.215, 0.7125, 0.0725, 0.57, 1.07, 0.4275, 0.9275, 0.285, 0.785, 0.1425, 0.6425, 0, 0.5, 0.9975, 0.3575, 0.855, 0.215, 0.7125, 0.0725, 0.57, 1.07, 0.4275, 0.9275, 0.285, 0.785, 0.1425, 0.6425, 0, 0.5, 0.9975, 0.3575, 0.855, 0.215, 0.7125, 0.0725, 0.57, 1.07, 0.4275, 0.9275, 0.285, 0.785, 0.1425, 0.6425], "SoftwareVersions": "syngo MR D11", "SpacingBetweenSlices": 2.4, "StationName": "AWP45239", "TaskName": "Breath holding task", "TotalReadoutTime": 0.0294501, "TxRefAmp": 330.642, "WipMemBlock": "4521f7c5-6ffe-4b3d-b73a-237b58303759||Sequence: VD11D r206; Feb 13 2013 18:52:04 by eja", "dcmmeta_affine": [[-2.3948919773101807, 0.06715354323387146, -5.551799020508952e-09, 114.65318298339844], [0.06020224094390869, 2.1469881534576416, -1.063370943069458, -91.51754760742188], [0.0297537948936224, 1.0611076354980469, 2.1515674591064453, -89.59342956542969], [0.0, 0.0, 0.0, 1.0]], "dcmmeta_reorient_transform": [[0.0, -1.0, 0.0, 95.0], [1.0, 0.0, 0.0, 0.0], [0.0, 0.0, 1.0, 0.0], [0.0, 0.0, 0.0, 1.0]], "dcmmeta_shape": [96, 96, 64, 318], "dcmmeta_slice_dim": 2, "dcmmeta_version": 0.6, "global": {"const": {"AcquisitionMatrix": [96, 0, 0, 96], "AngioFlag": "N", "BitsAllocated": 16, "BitsStored": 16, "BodyPartExamined": "BRAIN", "Columns": 768, "EchoNumbers": 1, "EchoTime": 30.0, "EchoTrainLength": 48, "FlipAngle": 63.0, "HighBit": 15, "ImageOrientationPatient": [0.99960710185282, -0.0251278923596, 0.01241897543938, 0.02802930476128, 0.89613420119619, -0.4428971116649], "ImagePositionPatient": [-948.28004908683, -813.60637809643, 357.74668218785], "ImageType": ["ORIGINAL", "PRIMARY", "M", "ND", "NORM", "MOSAIC"], "ImagedNucleus": "1H", "ImagingFrequency": 123.193339, "InPlanePhaseEncodingDirection": "COL", "MRAcquisitionType": "2D", "MagneticFieldStrength": 3.0, "Manufacturer": "SIEMENS", "ManufacturerModelName": "Skyra", "Modality": "MR", "NumberOfAverages": 1.0, "NumberOfPhaseEncodingSteps": 96, "PercentPhaseFieldOfView": 100.0, "PercentSampling": 100.0, "PerformedProcedureStepStartTime": "072405.578000", "PhotometricInterpretation": "MONOCHROME2", "PixelBandwidth": 2005.0, "PixelRepresentation": 0, "PixelSpacing": [2.3958332538605, 2.3958332538605], "ProtocolName": "Breath Hold", "RepetitionTime": 1160.0, "Rows": 768, "SAR": 0.09203851216272, "SamplesPerPixel": 1, "ScanOptions": "FS", "ScanningSequence": "EP", "SequenceName": "epfid2d1_96", "SequenceVariant": "SK", "SeriesDescription": "Breath Hold", "SeriesNumber": 8, "SeriesTime": "075351.828000", "SliceLocation": -39.770505511133, "SliceThickness": 2.0, "SmallestImagePixelValue": 0, "SoftwareVersions": "syngo MR D11", "SpacingBetweenSlices": 2.4000000631671, "SpecificCharacterSet": "ISO_IR 100", "StudyID": "1", "StudyTime": "072405.546000", "TransmitCoilName": "Body", "VariableFlipAngleFlag": "N", "WindowCenterWidthExplanation": "Algo1", "dBdt": 0.0}, "slices": {}}, "time": {"samples": {"AcquisitionNumber": [1, 2, 3, 4, 5, 6, 7, 8, 9, 10, 11, 12, 13, 14, 15, 16, 17, 18, 19, 20, 21, 22, 23, 24, 25, 26, 27, 28, 29, 30, 31, 32, 33, 34, 35, 36, 37, 38, 39, 40, 41, 42, 43, 44, 45, 46, 47, 48, 49, 50, 51, 52, 53, 54, 55, 56, 57, 58, 59, 60, 61, 62, 63, 64, 65, 66, 67, 68, 69, 70, 71, 72, 73, 74, 75, 76, 77, 78, 79, 80, 81, 82, 83, 84, 85, 86, 87, 88, 89, 90, 91, 92, 93, 94, 95, 96, 97, 98, 99, 100, 101, 102, 103, 104, 105, 106, 107, 108, 109, 110, 111, 112, 113, 114, 115, 116, 117, 118, 119, 120, 121, 122, 123, 124, 125, 126, 127, 128, 129, 130, 131, 132, 133, 134, 135, 136, 137, 138, 139, 140, 141, 142, 143, 144, 145, 146, 147, 148, 149, 150, 151, 152, 153, 154, 155, 156, 157, 158, 159, 160, 161, 162, 163, 164, 165, 166, 167, 168, 169, 170, 171, 172, 173, 174, 175, 176, 177, 178, 179, 180, 181, 182, 183, 184, 185, 186, 187, 188, 189, 190, 191, 192, 193, 194, 195, 196, 197, 198, 199, 200, 201, 202, 203, 204, 205, 206, 207, 208, 209, 210, 211, 212, 213, 214, 215, 216, 217, 218, 219, 220, 221, 222, 223, 224, 225, 226, 227, 228, 229, 230, 231, 232, 233, 234, 235, 236, 237, 238, 239, 240, 241, 242, 243, 244, 245, 246, 247, 248, 249, 250, 251, 252, 253, 254, 255, 256, 257, 258, 259, 260, 261, 262, 263, 264, 265, 266, 267, 268, 269, 270, 271, 272, 273, 274, 275, 276, 277, 278, 279, 280, 281, 282, 283, 284, 285, 286, 287, 288, 289, 290, 291, 292, 293, 294, 295, 296, 297, 298, 299, 300, 301, 302, 303, 304, 305, 306, 307, 308, 309, 310, 311, 312, 313, 314, 315, 316, 317, 318], "AcquisitionTime": ["075309.645000", "075338.645000", "075339.805000", "075340.965000", "075342.125000", "075343.285000", "075344.445000", "075345.605000", "075346.765000", "075347.925000", "075349.085000", "075350.245000", "075351.405000", "075352.565000", "075353.725000", "075354.885000", "075356.045000", "075357.205000", "075358.365000", "075359.525000", "075400.685000", "075401.845000", "075403.005000", "075404.165000", "075405.325000", "075406.485000", "075407.645000", "075408.805000", "075409.965000", "075411.125000", "075412.285000", "075413.445000", "075414.605000", "075415.765000", "075416.925000", "075418.085000", "075419.245000", "075420.405000", "075421.565000", "075422.725000", "075423.885000", "075425.045000", "075426.205000", "075427.365000", "075428.525000", "075429.685000", "075430.845000", "075432.005000", "075433.165000", "075434.325000", "075435.485000", "075436.645000", "075437.805000", "075438.965000", "075440.125000", "075441.285000", "075442.445000", "075443.605000", "075444.765000", "075445.925000", "075447.085000", "075448.245000", "075449.405000", "075450.565000", "075451.725000", "075452.885000", "075454.045000", "075455.205000", "075456.365000", "075457.525000", "075458.685000", "075459.845000", "075501.005000", "075502.167500", "075503.327500", "075504.487500", "075505.647500", "075506.807500", "075507.967500", "075509.127500", "075510.287500", "075511.447500", "075512.607500", "075513.767500", "075514.927500", "075516.087500", "075517.247500", "075518.407500", "075519.567500", "075520.727500", "075521.887500", "075523.047500", "075524.207500", "075525.367500", "075526.527500", "075527.687500", "075528.847500", "075530.007500", "075531.167500", "075532.327500", "075533.487500", "075534.647500", "075535.807500", "075536.967500", "075538.127500", "075539.287500", "075540.447500", "075541.607500", "075542.767500", "075543.927500", "075545.087500", "075546.247500", "075547.407500", "075548.567500", "075549.727500", "075550.887500", "075552.047500", "075553.207500", "075554.367500", "075555.527500", "075556.687500", "075557.847500", "075559.007500", "075600.167500", "075601.327500", "075602.487500", "075603.647500", "075604.807500", "075605.967500", "075607.127500", "075608.287500", "075609.447500", "075610.607500", "075611.767500", "075612.927500", "075614.087500", "075615.247500", "075616.407500", "075617.567500", "075618.727500", "075619.887500", "075621.047500", "075622.207500", "075623.367500", "075624.527500", "075625.687500", "075626.847500", "075628.007500", "075629.167500", "075630.327500", "075631.487500", "075632.647500", "075633.807500", "075634.967500", "075636.127500", "075637.287500", "075638.447500", "075639.607500", "075640.767500", "075641.927500", "075643.087500", "075644.247500", "075645.407500", "075646.567500", "075647.727500", "075648.887500", "075650.047500", "075651.207500", "075652.367500", "075653.527500", "075654.687500", "075655.847500", "075657.007500", "075658.167500", "075659.327500", "075700.487500", "075701.647500", "075702.807500", "075703.967500", "075705.127500", "075706.287500", "075707.447500", "075708.607500", "075709.767500", "075710.927500", "075712.087500", "075713.247500", "075714.407500", "075715.567500", "075716.727500", "075717.887500", "075719.047500", "075720.207500", "075721.367500", "075722.527500", "075723.687500", "075724.847500", "075726.007500", "075727.167500", "075728.327500", "075729.487500", "075730.647500", "075731.807500", "075732.967500", "075734.127500", "075735.287500", "075736.447500", "075737.607500", "075738.767500", "075739.927500", "075741.087500", "075742.247500", "075743.407500", "075744.567500", "075745.727500", "075746.887500", "075748.047500", "075749.207500", "075750.367500", "075751.527500", "075752.687500", "075753.847500", "075755.007500", "075756.167500", "075757.327500", "075758.487500", "075759.647500", "075800.807500", "075801.967500", "075803.127500", "075804.287500", "075805.447500", "075806.607500", "075807.767500", "075808.927500", "075810.087500", "075811.247500", "075812.407500", "075813.567500", "075814.727500", "075815.887500", "075817.047500", "075818.207500", "075819.367500", "075820.527500", "075821.687500", "075822.847500", "075824.007500", "075825.167500", "075826.327500", "075827.487500", "075828.647500", "075829.807500", "075830.967500", "075832.127500", "075833.287500", "075834.447500", "075835.607500", "075836.767500", "075837.927500", "075839.087500", "075840.247500", "075841.407500", "075842.567500", "075843.727500", "075844.887500", "075846.047500", "075847.207500", "075848.367500", "075849.527500", "075850.687500", "075851.847500", "075853.007500", "075854.167500", "075855.327500", "075856.487500", "075857.647500", "075858.807500", "075859.967500", "075901.127500", "075902.287500", "075903.447500", "075904.607500", "075905.767500", "075906.927500", "075908.087500", "075909.247500", "075910.407500", "075911.567500", "075912.727500", "075913.887500", "075915.047500", "075916.207500", "075917.367500", "075918.527500", "075919.687500", "075920.847500", "075922.007500", "075923.167500", "075924.327500", "075925.487500", "075926.647500", "075927.807500", "075928.967500", "075930.127500", "075931.287500", "075932.447500", "075933.607500", "075934.767500", "075935.927500", "075937.087500", "075938.247500", "075939.407500", "075940.567500", "075941.727500", "075942.887500", "075944.047500", "075945.207500"], "ContentTime": ["075351.828000", "075357.359000", "075357.359000", "075357.375000", "075357.375000", "075402.359000", "075402.359000", "075402.375000", "075402.375000", "075407.359000", "075407.359000", "075407.375000", "075407.375000", "075412.359000", "075412.359000", "075412.375000", "075412.375000", "075417.359000", "075417.359000", "075417.375000", "075422.359000", "075422.359000", "075422.375000", "075422.375000", "075427.359000", "075427.359000", "075427.375000", "075427.375000", "075432.359000", "075432.359000", "075432.375000", "075437.359000", "075437.359000", "075437.375000", "075437.375000", "075442.359000", "075442.359000", "075442.375000", "075442.375000", "075447.359000", "075447.359000", "075447.375000", "075447.375000", "075452.359000", "075452.359000", "075452.375000", "075452.375000", "075457.359000", "075457.359000", "075457.375000", "075457.375000", "075502.359000", "075502.359000", "075502.375000", "075507.359000", "075507.359000", "075507.375000", "075507.375000", "075512.359000", "075512.359000", "075512.375000", "075512.375000", "075517.359000", "075517.375000", "075517.375000", "075517.375000", "075522.359000", "075522.359000", "075522.375000", "075527.359000", "075527.359000", "075527.375000", "075527.375000", "075532.359000", "075532.359000", "075532.375000", "075532.375000", "075537.359000", "075537.359000", "075537.375000", "075542.359000", "075542.375000", "075542.375000", "075542.375000", "075547.359000", "075547.375000", "075547.375000", "075547.375000", "075552.359000", "075552.359000", "075552.375000", "075552.375000", "075557.359000", "075557.359000", "075557.375000", "075602.359000", "075602.359000", "075602.375000", "075602.375000", "075607.359000", "075607.359000", "075607.375000", "075607.375000", "075612.359000", "075612.359000", "075612.375000", "075612.375000", "075617.359000", "075617.359000", "075617.375000", "075622.359000", "075622.359000", "075622.375000", "075622.375000", "075627.359000", "075627.359000", "075627.375000", "075627.375000", "075632.359000", "075632.359000", "075632.375000", "075637.359000", "075637.359000", "075637.375000", "075637.375000", "075642.359000", "075642.359000", "075642.375000", "075647.359000", "075647.359000", "075647.375000", "075647.375000", "075652.359000", "075652.359000", "075652.375000", "075652.375000", "075657.359000", "075657.359000", "075657.375000", "075702.359000", "075702.359000", "075702.375000", "075702.375000", "075707.359000", "075707.359000", "075707.375000", "075707.375000", "075712.359000", "075712.359000", "075712.375000", "075712.375000", "075717.359000", "075717.359000", "075717.375000", "075717.375000", "075722.359000", "075722.359000", "075722.375000", "075727.359000", "075727.359000", "075727.375000", "075727.375000", "075732.359000", "075732.359000", "075732.375000", "075732.375000", "075737.359000", "075737.359000", "075737.375000", "075737.375000", "075742.359000", "075742.359000", "075742.375000", "075747.359000", "075747.359000", "075747.375000", "075747.375000", "075752.359000", "075752.359000", "075752.375000", "075752.375000", "075757.359000", "075757.359000", "075757.375000", "075757.375000", "075802.359000", "075802.359000", "075802.375000", "075807.359000", "075807.359000", "075807.375000", "075807.375000", "075812.359000", "075812.359000", "075812.375000", "075812.375000", "075817.359000", "075817.359000", "075817.375000", "075822.359000", "075822.359000", "075822.375000", "075822.375000", "075827.359000", "075827.359000", "075827.375000", "075827.375000", "075832.359000", "075832.359000", "075832.375000", "075832.375000", "075837.359000", "075837.375000", "075837.375000", "075837.375000", "075842.359000", "075842.359000", "075842.375000", "075847.359000", "075847.359000", "075847.375000", "075847.375000", "075852.359000", "075852.359000", "075852.375000", "075852.375000", "075857.359000", "075857.359000", "075857.375000", "075857.375000", "075902.359000", "075902.375000", "075902.375000", "075907.359000", "075907.359000", "075907.375000", "075907.375000", "075912.359000", "075912.359000", "075912.375000", "075917.359000", "075917.359000", "075917.375000", "075917.375000", "075922.359000", "075922.359000", "075922.375000", "075927.359000", "075927.359000", "075927.375000", "075927.375000", "075932.359000", "075932.359000", "075932.375000", "075932.375000", "075937.359000", "075937.375000", "075937.375000", "075937.375000", "075942.359000", "075942.359000", "075942.375000", "075947.359000", "075947.359000", "075947.375000", "075947.375000", "075952.359000", "075952.359000", "075952.375000", "075952.375000", "075957.359000", "075957.375000", "075957.375000", "075957.375000", "080002.359000", "080002.359000", "080002.375000", "080002.375000", "080007.359000", "080007.359000", "080007.375000", "080007.375000", "080012.359000", "080012.375000", "080012.375000", "080017.359000", "080017.375000", "080017.375000", "080017.375000", "080022.359000", "080022.375000", "080022.375000", "080022.375000", "080027.359000", "080027.359000", "080027.375000", "080027.375000", "080032.359000", "080032.359000", "080032.375000", "080032.375000", "080037.359000", "080037.359000", "080037.375000", "080037.375000", "080042.359000", "080042.359000", "080042.375000", "080042.375000", "080047.359000", "080047.359000", "080047.375000", "080047.375000", "080052.359000", "080052.359000", "080052.375000", "080052.375000", "080052.562000"], "InstanceCreationTime": ["075351.828000", "075357.359000", "075357.359000", "075357.375000", "075357.375000", "075402.359000", "075402.359000", "075402.375000", "075402.375000", "075407.359000", "075407.359000", "075407.375000", "075407.375000", "075412.359000", "075412.359000", "075412.375000", "075412.375000", "075417.359000", "075417.359000", "075417.375000", "075422.359000", "075422.359000", "075422.375000", "075422.375000", "075427.359000", "075427.359000", "075427.375000", "075427.375000", "075432.359000", "075432.359000", "075432.375000", "075437.359000", "075437.359000", "075437.375000", "075437.375000", "075442.359000", "075442.359000", "075442.375000", "075442.375000", "075447.359000", "075447.359000", "075447.375000", "075447.375000", "075452.359000", "075452.359000", "075452.375000", "075452.375000", "075457.359000", "075457.359000", "075457.375000", "075457.375000", "075502.359000", "075502.359000", "075502.375000", "075507.359000", "075507.359000", "075507.375000", "075507.375000", "075512.359000", "075512.359000", "075512.375000", "075512.375000", "075517.359000", "075517.375000", "075517.375000", "075517.375000", "075522.359000", "075522.359000", "075522.375000", "075527.359000", "075527.359000", "075527.375000", "075527.375000", "075532.359000", "075532.359000", "075532.375000", "075532.375000", "075537.359000", "075537.359000", "075537.375000", "075542.359000", "075542.375000", "075542.375000", "075542.375000", "075547.359000", "075547.375000", "075547.375000", "075547.375000", "075552.359000", "075552.359000", "075552.375000", "075552.375000", "075557.359000", "075557.359000", "075557.375000", "075602.359000", "075602.359000", "075602.375000", "075602.375000", "075607.359000", "075607.359000", "075607.375000", "075607.375000", "075612.359000", "075612.359000", "075612.375000", "075612.375000", "075617.359000", "075617.359000", "075617.375000", "075622.359000", "075622.359000", "075622.375000", "075622.375000", "075627.359000", "075627.359000", "075627.375000", "075627.375000", "075632.359000", "075632.359000", "075632.375000", "075637.359000", "075637.359000", "075637.375000", "075637.375000", "075642.359000", "075642.359000", "075642.375000", "075647.359000", "075647.359000", "075647.375000", "075647.375000", "075652.359000", "075652.359000", "075652.375000", "075652.375000", "075657.359000", "075657.359000", "075657.375000", "075702.359000", "075702.359000", "075702.375000", "075702.375000", "075707.359000", "075707.359000", "075707.375000", "075707.375000", "075712.359000", "075712.359000", "075712.375000", "075712.375000", "075717.359000", "075717.359000", "075717.375000", "075717.375000", "075722.359000", "075722.359000", "075722.375000", "075727.359000", "075727.359000", "075727.375000", "075727.375000", "075732.359000", "075732.359000", "075732.375000", "075732.375000", "075737.359000", "075737.359000", "075737.375000", "075737.375000", "075742.359000", "075742.359000", "075742.375000", "075747.359000", "075747.359000", "075747.375000", "075747.375000", "075752.359000", "075752.359000", "075752.375000", "075752.375000", "075757.359000", "075757.359000", "075757.375000", "075757.375000", "075802.359000", "075802.359000", "075802.375000", "075807.359000", "075807.359000", "075807.375000", "075807.375000", "075812.359000", "075812.359000", "075812.375000", "075812.375000", "075817.359000", "075817.359000", "075817.375000", "075822.359000", "075822.359000", "075822.375000", "075822.375000", "075827.359000", "075827.359000", "075827.375000", "075827.375000", "075832.359000", "075832.359000", "075832.375000", "075832.375000", "075837.359000", "075837.375000", "075837.375000", "075837.375000", "075842.359000", "075842.359000", "075842.375000", "075847.359000", "075847.359000", "075847.375000", "075847.375000", "075852.359000", "075852.359000", "075852.375000", "075852.375000", "075857.359000", "075857.359000", "075857.375000", "075857.375000", "075902.359000", "075902.375000", "075902.375000", "075907.359000", "075907.359000", "075907.375000", "075907.375000", "075912.359000", "075912.359000", "075912.375000", "075917.359000", "075917.359000", "075917.375000", "075917.375000", "075922.359000", "075922.359000", "075922.375000", "075927.359000", "075927.359000", "075927.375000", "075927.375000", "075932.359000", "075932.359000", "075932.375000", "075932.375000", "075937.359000", "075937.375000", "075937.375000", "075937.375000", "075942.359000", "075942.359000", "075942.375000", "075947.359000", "075947.359000", "075947.375000", "075947.375000", "075952.359000", "075952.359000", "075952.375000", "075952.375000", "075957.359000", "075957.375000", "075957.375000", "075957.375000", "080002.359000", "080002.359000", "080002.375000", "080002.375000", "080007.359000", "080007.359000", "080007.375000", "080007.375000", "080012.359000", "080012.375000", "080012.375000", "080017.359000", "080017.375000", "080017.375000", "080017.375000", "080022.359000", "080022.375000", "080022.375000", "080022.375000", "080027.359000", "080027.359000", "080027.375000", "080027.375000", "080032.359000", "080032.359000", "080032.375000", "080032.375000", "080037.359000", "080037.359000", "080037.375000", "080037.375000", "080042.359000", "080042.359000", "080042.375000", "080042.375000", "080047.359000", "080047.359000", "080047.375000", "080047.375000", "080052.359000", "080052.359000", "080052.375000", "080052.375000", "080052.562000"], "InstanceNumber": [1, 2, 3, 4, 5, 6, 7, 8, 9, 10, 11, 12, 13, 14, 15, 16, 17, 18, 19, 20, 21, 22, 23, 24, 25, 26, 27, 28, 29, 30, 31, 32, 33, 34, 35, 36, 37, 38, 39, 40, 41, 42, 43, 44, 45, 46, 47, 48, 49, 50, 51, 52, 53, 54, 55, 56, 57, 58, 59, 60, 61, 62, 63, 64, 65, 66, 67, 68, 69, 70, 71, 72, 73, 74, 75, 76, 77, 78, 79, 80, 81, 82, 83, 84, 85, 86, 87, 88, 89, 90, 91, 92, 93, 94, 95, 96, 97, 98, 99, 100, 101, 102, 103, 104, 105, 106, 107, 108, 109, 110, 111, 112, 113, 114, 115, 116, 117, 118, 119, 120, 121, 122, 123, 124, 125, 126, 127, 128, 129, 130, 131, 132, 133, 134, 135, 136, 137, 138, 139, 140, 141, 142, 143, 144, 145, 146, 147, 148, 149, 150, 151, 152, 153, 154, 155, 156, 157, 158, 159, 160, 161, 162, 163, 164, 165, 166, 167, 168, 169, 170, 171, 172, 173, 174, 175, 176, 177, 178, 179, 180, 181, 182, 183, 184, 185, 186, 187, 188, 189, 190, 191, 192, 193, 194, 195, 196, 197, 198, 199, 200, 201, 202, 203, 204, 205, 206, 207, 208, 209, 210, 211, 212, 213, 214, 215, 216, 217, 218, 219, 220, 221, 222, 223, 224, 225, 226, 227, 228, 229, 230, 231, 232, 233, 234, 235, 236, 237, 238, 239, 240, 241, 242, 243, 244, 245, 246, 247, 248, 249, 250, 251, 252, 253, 254, 255, 256, 257, 258, 259, 260, 261, 262, 263, 264, 265, 266, 267, 268, 269, 270, 271, 272, 273, 274, 275, 276, 277, 278, 279, 280, 281, 282, 283, 284, 285, 286, 287, 288, 289, 290, 291, 292, 293, 294, 295, 296, 297, 298, 299, 300, 301, 302, 303, 304, 305, 306, 307, 308, 309, 310, 311, 312, 313, 314, 315, 316, 317, 318], "LargestImagePixelValue": [29256, 24667, 27013, 24130, 27949, 23802, 24053, 28937, 25390, 23998, 29873, 27637, 24035, 30266, 27720, 28829, 23579, 23509, 29409, 24155, 24259, 23515, 23437, 23920, 30159, 24689, 26748, 29419, 26354, 23451, 27612, 24541, 23697, 25504, 23305, 28836, 27764, 27072, 23711, 23454, 25666, 30452, 27045, 28378, 25155, 23745, 24048, 23861, 24168, 24072, 24398, 24616, 26267, 25719, 28014, 25298, 24685, 30521, 26710, 24513, 25503, 27446, 30307, 30432, 25532, 28043, 27338, 24512, 24501, 28467, 27794, 28958, 27063, 24471, 24447, 24633, 30197, 29326, 28368, 24673, 26030, 26195, 24445, 24220, 29798, 29116, 27417, 24538, 28693, 26973, 24473, 24439, 29253, 24287, 29901, 25616, 24387, 29084, 24606, 24170, 24257, 24309, 24564, 26034, 25392, 29101, 24163, 30726, 25910, 23882, 29258, 30058, 24101, 24193, 28647, 23916, 30270, 25940, 29833, 26714, 24055, 27688, 32063, 25823, 29544, 26689, 23823, 23951, 23840, 32340, 26652, 23920, 31207, 23844, 29485, 27378, 26257, 24054, 23719, 23785, 31153, 29286, 25289, 23777, 30063, 27948, 28526, 26475, 25269, 31546, 24619, 23784, 23773, 23654, 24252, 25639, 23719, 28518, 24013, 30381, 25525, 30248, 29384, 25934, 24580, 24104, 26591, 23682, 26222, 32222, 24338, 30409, 28414, 27388, 26344, 28434, 27674, 25946, 31552, 24881, 23809, 23596, 23641, 29271, 26506, 30866, 29459, 29831, 27989, 28149, 27670, 26256, 23498, 28669, 24182, 23530, 23635, 23645, 27000, 26008, 26780, 31193, 23577, 32600, 23731, 24202, 28193, 23754, 23956, 29456, 24719, 28222, 23421, 23693, 24256, 29210, 25360, 32123, 25704, 26232, 29227, 23605, 28879, 29063, 26934, 27708, 30682, 26276, 23555, 32530, 27261, 25036, 28623, 29162, 31862, 23533, 23455, 30204, 23435, 30009, 28944, 24193, 31040, 24384, 26366, 23383, 28611, 23639, 25654, 31294, 26584, 24427, 31793, 28910, 24790, 23479, 23444, 24174, 23514, 23510, 24720, 24898, 23640, 23502, 28388, 24840, 29183, 25782, 24785, 29561, 24520, 32500, 23700, 23371, 23548, 27686, 33624, 29728, 28602, 24459, 28238, 26091, 30813, 31199, 30112, 24461, 28995, 28077, 23681, 29032, 24797, 29269, 23629, 23483, 23778, 32600, 29298, 29835, 23736, 31853, 24269, 25731, 24206, 23924, 33543, 27736, 23621, 24528, 25278, 24956, 28454, 23987, 30028, 24125, 24875, 24859, 24749, 33434], "WindowCenter": [9945.0, 9923.0, 9914.0, 9911.0, 9940.0, 9913.0, 9913.0, 9923.0, 9909.0, 9899.0, 9928.0, 9898.0, 9880.0, 9902.0, 9894.0, 9894.0, 9869.0, 9866.0, 9881.0, 9874.0, 9889.0, 9881.0, 9889.0, 9897.0, 9965.0, 9901.0, 9901.0, 9892.0, 9883.0, 9866.0, 9893.0, 9883.0, 9900.0, 9909.0, 9876.0, 9895.0, 9899.0, 9899.0, 9887.0, 9909.0, 9907.0, 9910.0, 9893.0, 9897.0, 9895.0, 9892.0, 9918.0, 9918.0, 9929.0, 9927.0, 9941.0, 9956.0, 9999.0, 9995.0, 9970.0, 9955.0, 9950.0, 9980.0, 9937.0, 9940.0, 9950.0, 9947.0, 9942.0, 9913.0, 9887.0, 9901.0, 9898.0, 9881.0, 9890.0, 9919.0, 9890.0, 9876.0, 9883.0, 9853.0, 9858.0, 9865.0, 9893.0, 9864.0, 9878.0, 9856.0, 9864.0, 9924.0, 9915.0, 9917.0, 9930.0, 9912.0, 9891.0, 9868.0, 9876.0, 9871.0, 9859.0, 9879.0, 9911.0, 9898.0, 9902.0, 9883.0, 9872.0, 9901.0, 9876.0, 9890.0, 9919.0, 9928.0, 9919.0, 9930.0, 9951.0, 9969.0, 9939.0, 9943.0, 9901.0, 9901.0, 9915.0, 9916.0, 9908.0, 9900.0, 9918.0, 9914.0, 9948.0, 9896.0, 9913.0, 9905.0, 9887.0, 9904.0, 9905.0, 9867.0, 9885.0, 9885.0, 9872.0, 9864.0, 9875.0, 9906.0, 9866.0, 9854.0, 9888.0, 9874.0, 9911.0, 9879.0, 9872.0, 9867.0, 9882.0, 9905.0, 9928.0, 9888.0, 9874.0, 9850.0, 9913.0, 9897.0, 9892.0, 9876.0, 9872.0, 9894.0, 9875.0, 9870.0, 9886.0, 9882.0, 9895.0, 9891.0, 9888.0, 9936.0, 9908.0, 9937.0, 9917.0, 9932.0, 9929.0, 9897.0, 9897.0, 9915.0, 9927.0, 9902.0, 9929.0, 9933.0, 9900.0, 9914.0, 9905.0, 9892.0, 9896.0, 9908.0, 9880.0, 9879.0, 9879.0, 9856.0, 9863.0, 9874.0, 9878.0, 9886.0, 9866.0, 9876.0, 9883.0, 9883.0, 9880.0, 9871.0, 9854.0, 9847.0, 9851.0, 9877.0, 9855.0, 9840.0, 9853.0, 9869.0, 9882.0, 9874.0, 9881.0, 9892.0, 9868.0, 9902.0, 9866.0, 9873.0, 9943.0, 9890.0, 9903.0, 9924.0, 9897.0, 9924.0, 9897.0, 9927.0, 9929.0, 9942.0, 9901.0, 9937.0, 9899.0, 9903.0, 9925.0, 9908.0, 9915.0, 9914.0, 9894.0, 9889.0, 9878.0, 9860.0, 9843.0, 9894.0, 9845.0, 9850.0, 9855.0, 9859.0, 9870.0, 9847.0, 9849.0, 9879.0, 9835.0, 9869.0, 9857.0, 9841.0, 9864.0, 9840.0, 9856.0, 9862.0, 9890.0, 9868.0, 9882.0, 9903.0, 9877.0, 9854.0, 9888.0, 9881.0, 9861.0, 9864.0, 9850.0, 9859.0, 9853.0, 9877.0, 9896.0, 9922.0, 9894.0, 9890.0, 9918.0, 9899.0, 9901.0, 9894.0, 9873.0, 9903.0, 9873.0, 9919.0, 9892.0, 9875.0, 9895.0, 9922.0, 9933.0, 9893.0, 9887.0, 9873.0, 9934.0, 9921.0, 9936.0, 9907.0, 9870.0, 9838.0, 9850.0, 9867.0, 9846.0, 9871.0, 9851.0, 9850.0, 9851.0, 9855.0, 9838.0, 9890.0, 9865.0, 9879.0, 9843.0, 9876.0, 9859.0, 9864.0, 9849.0, 9849.0, 9892.0, 9857.0, 9852.0, 9851.0, 9869.0, 9862.0, 9866.0, 9870.0, 9893.0, 9892.0, 9890.0, 9896.0, 9897.0, 9931.0], "WindowWidth": [21058.0, 21011.0, 20989.0, 20981.0, 21037.0, 20983.0, 20980.0, 20999.0, 20970.0, 20953.0, 21006.0, 20945.0, 20907.0, 20948.0, 20932.0, 20931.0, 20886.0, 20877.0, 20904.0, 20891.0, 20925.0, 20917.0, 20933.0, 20950.0, 21109.0, 20956.0, 20951.0, 20932.0, 20908.0, 20872.0, 20926.0, 20914.0, 20945.0, 20962.0, 20901.0, 20933.0, 20936.0, 20941.0, 20925.0, 20972.0, 20967.0, 20968.0, 20929.0, 20935.0, 20934.0, 20933.0, 20994.0, 20992.0, 21014.0, 21013.0, 21043.0, 21074.0, 21172.0, 21168.0, 21105.0, 21075.0, 21063.0, 21112.0, 21034.0, 21039.0, 21059.0, 21048.0, 21031.0, 20971.0, 20915.0, 20938.0, 20933.0, 20904.0, 20925.0, 20973.0, 20915.0, 20888.0, 20902.0, 20845.0, 20856.0, 20868.0, 20920.0, 20863.0, 20888.0, 20844.0, 20860.0, 21015.0, 20983.0, 20980.0, 21001.0, 20959.0, 20912.0, 20867.0, 20884.0, 20879.0, 20858.0, 20901.0, 20963.0, 20936.0, 20942.0, 20903.0, 20881.0, 20935.0, 20889.0, 20922.0, 20988.0, 21013.0, 21000.0, 21020.0, 21069.0, 21097.0, 21034.0