{
    "AcquisitionMatrixPE": 96,
    "AcquisitionNumber": 1,
    "AcquisitionTime": "07:23:21.005000",
    "BandwidthPerPixelPhaseEncode": 33.602,
    "BaseResolution": 96,
    "BodyPartExamined": "BRAIN",
    "ConsistencyInfo": "N4_VD11D_LATEST_20110129",
    "ConversionSoftware": "dcm2niix",
    "ConversionSoftwareVersion": "v1.0.20210317",
    "DerivedVendorReportedEchoSpacing": 0.000620003,
    "DeviceSerialNumber": "45239",
    "DwellTime": 2.6e-06,
    "EchoTime": 0.03,
    "EchoTrainLength": 48,
    "EffectiveEchoSpacing": 0.000310001,
    "FlipAngle": 63,
    "ImageComments": "Unaliased MB4/PE3",
    "ImageOrientationPatientDICOM": [
        0.99943,
        0.0123297,
        0.0314426,
        0.00643396,
        0.844425,
        -0.535635
    ],
    "ImageType": [
        "ORIGINAL",
        "PRIMARY",
        "M",
        "ND",
        "NORM",
        "MOSAIC"
    ],
    "ImagingFrequency": 123.193,
    "InPlanePhaseEncodingDirectionDICOM": "COL",
    "InstitutionAddress": "E 24th St. 100,Austin,Southmiddle,US,78712",
    "InstitutionName": "Univ of Texas at Austin",
    "InstitutionalDepartmentName": "IRC",
    "MRAcquisitionType": "2D",
    "MagneticFieldStrength": 3,
    "Manufacturer": "Siemens",
    "ManufacturersModelName": "Skyra",
    "Modality": "MR",
    "MultibandAccelerationFactor": 4,
    "ParallelReductionFactorInPlane": 2,
    "PartialFourier": 1,
    "PatientPosition": "HFS",
    "PercentPhaseFOV": 100,
    "PercentSampling": 100,
    "PhaseEncodingDirection": "j-",
    "PhaseEncodingSteps": 96,
    "PhaseResolution": 1,
    "PixelBandwidth": 2005,
    "ProcedureStepDescription": "Poldrack2^self-scanning",
    "ProtocolName": "Resting State fMRI MBEPI_matrix96_BW2004",
    "PulseSequenceDetails": "%CustomerSeq%\\cmrr_mbep2d_bold",
    "ReceiveCoilActiveElements": "HEA;HEP",
    "ReceiveCoilName": "Head_32",
    "ReconMatrixPE": 96,
    "RefLinesPE": 94,
    "RepetitionTime": 1.16,
    "SAR": 0.0944922,
    "ScanOptions": "FS",
    "ScanningSequence": "EP",
    "SequenceName": "epfid2d1_96",
    "SequenceVariant": "SK",
    "SeriesDescription": "Resting State fMRI MBEPI_matrix96_BW2004",
    "SeriesNumber": 9,
    "ShimSetting": [
        -2771,
        8062,
        -15425,
        194,
        -211,
        210,
        213,
        -72
    ],
    "SliceThickness": 2,
    "SliceTiming": [
        0,
        0.5,
        0.9975,
        0.3575,
        0.855,
        0.215,
        0.7125,
        0.0725,
        0.57,
        1.0675,
        0.4275,
        0.925,
        0.285,
        0.7825,
        0.1425,
        0.64,
        0,
        0.5,
        0.9975,
        0.3575,
        0.855,
        0.215,
        0.7125,
        0.0725,
        0.57,
        1.0675,
        0.4275,
        0.925,
        0.285,
        0.7825,
        0.1425,
        0.64,
        0,
        0.5,
        0.9975,
        0.3575,
        0.855,
        0.215,
        0.7125,
        0.0725,
        0.57,
        1.0675,
        0.4275,
        0.925,
        0.285,
        0.7825,
        0.1425,
        0.64,
        0,
        0.5,
        0.9975,
        0.3575,
        0.855,
        0.215,
        0.7125,
        0.0725,
        0.57,
        1.0675,
        0.4275,
        0.925,
        0.285,
        0.7825,
        0.1425,
        0.64
    ],
    "SoftwareVersions": "syngo MR D11",
    "SpacingBetweenSlices": 2.4,
    "StationName": "AWP45239",
    "TaskName": "Resting fmri",
    "TotalReadoutTime": 0.0294501,
    "TxRefAmp": 333.943,
    "WipMemBlock": "a45a1f81-423f-4504-b8c4-2729e17c2f57||Sequence: VD11D r206; Feb 13 2013 18:52:04 by eja",
    "dcmmeta_affine": [
        [
            -2.3944664001464844,
            0.01541470643132925,
            0.0795724168419838,
            115.41473388671875
        ],
        [
            -0.02953989803791046,
            2.0231010913848877,
            -1.285277247428894,
            -72.20878601074219
        ],
        [
            0.07533133774995804,
            1.2832932472229004,
            2.025273084640503,
            -90.74694061279297
        ],
        [
            0.0,
            0.0,
            0.0,
            1.0
        ]
    ],
    "dcmmeta_reorient_transform": [
        [
            0.0,
            -1.0,
            0.0,
            95.0
        ],
        [
            1.0,
            0.0,
            0.0,
            0.0
        ],
        [
            0.0,
            0.0,
            1.0,
            0.0
        ],
        [
            0.0,
            0.0,
            0.0,
            1.0
        ]
    ],
    "dcmmeta_shape": [
        96,
        96,
        64,
        518
    ],
    "dcmmeta_slice_dim": 2,
    "dcmmeta_version": 0.6,
    "global": {
        "const": {
            "AcquisitionMatrix": [
                96,
                0,
                0,
                96
            ],
            "AngioFlag": "N",
            "BitsAllocated": 16,
            "BitsStored": 16,
            "BodyPartExamined": "BRAIN",
            "Columns": 768,
            "EchoNumbers": 1,
            "EchoTime": 30.0,
            "EchoTrainLength": 48,
            "FlipAngle": 63.0,
            "HighBit": 15,
            "ImageOrientationPatient": [
                0.99942950656147,
                0.01232969679323,
                0.0314426460605,
                0.00643396476933,
                0.84442481050108,
                -0.5356354576646
            ],
            "ImagePositionPatient": [
                -926.59919679298,
                -809.6731716969,
                437.04111762691
            ],
            "ImageType": [
                "ORIGINAL",
                "PRIMARY",
                "M",
                "ND",
                "NORM",
                "MOSAIC"
            ],
            "ImagedNucleus": "1H",
            "ImagingFrequency": 123.193334,
            "InPlanePhaseEncodingDirection": "COL",
            "MRAcquisitionType": "2D",
            "MagneticFieldStrength": 3.0,
            "Manufacturer": "SIEMENS",
            "ManufacturerModelName": "Skyra",
            "Modality": "MR",
            "NumberOfAverages": 1.0,
            "NumberOfPhaseEncodingSteps": 96,
            "PercentPhaseFieldOfView": 100.0,
            "PercentSampling": 100.0,
            "PerformedProcedureStepStartTime": "071130.921000",
            "PhotometricInterpretation": "MONOCHROME2",
            "PixelBandwidth": 2005.0,
            "PixelRepresentation": 0,
            "PixelSpacing": [
                2.3958332538605,
                2.3958332538605
            ],
            "ProtocolName": "Resting State fMRI MBEPI_matrix96_BW2004",
            "RepetitionTime": 1160.0,
            "Rows": 768,
            "SAR": 0.09449216336874,
            "SamplesPerPixel": 1,
            "ScanOptions": "FS",
            "ScanningSequence": "EP",
            "SequenceName": "epfid2d1_96",
            "SequenceVariant": "SK",
            "SeriesDescription": "Resting State fMRI MBEPI_matrix96_BW2004",
            "SeriesNumber": 9,
            "SeriesTime": "072400.140000",
            "SliceLocation": -34.081330186153,
            "SliceThickness": 2.0,
            "SmallestImagePixelValue": 0,
            "SoftwareVersions": "syngo MR D11",
            "SpacingBetweenSlices": 2.3999999878322,
            "SpecificCharacterSet": "ISO_IR 100",
            "StudyID": "1",
            "StudyTime": "071130.875000",
            "TransmitCoilName": "Body",
            "VariableFlipAngleFlag": "N",
            "WindowCenterWidthExplanation": "Algo1",
            "dBdt": 0.0
        },
        "slices": {}
    },
    "time": {
        "samples": {
            "AcquisitionNumber": [
                1,
                2,
                3,
                4,
                5,
                6,
                7,
                8,
                9,
                10,
                11,
                12,
                13,
                14,
                15,
                16,
                17,
                18,
                19,
                20,
                21,
                22,
                23,
                24,
                25,
                26,
                27,
                28,
                29,
                30,
                31,
                32,
                33,
                34,
                35,
                36,
                37,
                38,
                39,
                40,
                41,
                42,
                43,
                44,
                45,
                46,
                47,
                48,
                49,
                50,
                51,
                52,
                53,
                54,
                55,
                56,
                57,
                58,
                59,
                60,
                61,
                62,
                63,
                64,
                65,
                66,
                67,
                68,
                69,
                70,
                71,
                72,
                73,
                74,
                75,
                76,
                77,
                78,
                79,
                80,
                81,
                82,
                83,
                84,
                85,
                86,
                87,
                88,
                89,
                90,
                91,
                92,
                93,
                94,
                95,
                96,
                97,
                98,
                99,
                100,
                101,
                102,
                103,
                104,
                105,
                106,
                107,
                108,
                109,
                110,
                111,
                112,
                113,
                114,
                115,
                116,
                117,
                118,
                119,
                120,
                121,
                122,
                123,
                124,
                125,
                126,
                127,
                128,
                129,
                130,
                131,
                132,
                133,
                134,
                135,
                136,
                137,
                138,
                139,
                140,
                141,
                142,
                143,
                144,
                145,
                146,
                147,
                148,
                149,
                150,
                151,
                152,
                153,
                154,
                155,
                156,
                157,
                158,
                159,
                160,
                161,
                162,
                163,
                164,
                165,
                166,
                167,
                168,
                169,
                170,
                171,
                172,
                173,
                174,
                175,
                176,
                177,
                178,
                179,
                180,
                181,
                182,
                183,
                184,
                185,
                186,
                187,
                188,
                189,
                190,
                191,
                192,
                193,
                194,
                195,
                196,
                197,
                198,
                199,
                200,
                201,
                202,
                203,
                204,
                205,
                206,
                207,
                208,
                209,
                210,
                211,
                212,
                213,
                214,
                215,
                216,
                217,
                218,
                219,
                220,
                221,
                222,
                223,
                224,
                225,
                226,
                227,
                228,
                229,
                230,
                231,
                232,
                233,
                234,
                235,
                236,
                237,
                238,
                239,
                240,
                241,
                242,
                243,
                244,
                245,
                246,
                247,
                248,
                249,
                250,
                251,
                252,
                253,
                254,
                255,
                256,
                257,
                258,
                259,
                260,
                261,
                262,
                263,
                264,
                265,
                266,
                267,
                268,
                269,
                270,
                271,
                272,
                273,
                274,
                275,
                276,
                277,
                278,
                279,
                280,
                281,
                282,
                283,
                284,
                285,
                286,
                287,
                288,
                289,
                290,
                291,
                292,
                293,
                294,
                295,
                296,
                297,
                298,
                299,
                300,
                301,
                302,
                303,
                304,
                305,
                306,
                307,
                308,
                309,
                310,
                311,
                312,
                313,
                314,
                315,
                316,
                317,
                318,
                319,
                320,
                321,
                322,
                323,
                324,
                325,
                326,
                327,
                328,
                329,
                330,
                331,
                332,
                333,
                334,
                335,
                336,
                337,
                338,
                339,
                340,
                341,
                342,
                343,
                344,
                345,
                346,
                347,
                348,
                349,
                350,
                351,
                352,
                353,
                354,
                355,
                356,
                357,
                358,
                359,
                360,
                361,
                362,
                363,
                364,
                365,
                366,
                367,
                368,
                369,
                370,
                371,
                372,
                373,
                374,
                375,
                376,
                377,
                378,
                379,
                380,
                381,
                382,
                383,
                384,
                385,
                386,
                387,
                388,
                389,
                390,
                391,
                392,
                393,
                394,
                395,
                396,
                397,
                398,
                399,
                400,
                401,
                402,
                403,
                404,
                405,
                406,
                407,
                408,
                409,
                410,
                411,
                412,
                413,
                414,
                415,
                416,
                417,
                418,
                419,
                420,
                421,
                422,
                423,
                424,
                425,
                426,
                427,
                428,
                429,
                430,
                431,
                432,
                433,
                434,
                435,
                436,
                437,
                438,
                439,
                440,
                441,
                442,
                443,
                444,
                445,
                446,
                447,
                448,
                449,
                450,
                451,
                452,
                453,
                454,
                455,
                456,
                457,
                458,
                459,
                460,
                461,
                462,
                463,
                464,
                465,
                466,
                467,
                468,
                469,
                470,
                471,
                472,
                473,
                474,
                475,
                476,
                477,
                478,
                479,
                480,
                481,
                482,
                483,
                484,
                485,
                486,
                487,
                488,
                489,
                490,
                491,
                492,
                493,
                494,
                495,
                496,
                497,
                498,
                499,
                500,
                501,
                502,
                503,
                504,
                505,
                506,
                507,
                508,
                509,
                510,
                511,
                512,
                513,
                514,
                515,
                516,
                517,
                518
            ],
            "AcquisitionTime": [
                "072321.005000",
                "072350.005000",
                "072351.165000",
                "072352.325000",
                "072353.485000",
                "072354.645000",
                "072355.805000",
                "072356.965000",
                "072358.125000",
                "072359.285000",
                "072400.445000",
                "072401.605000",
                "072402.765000",
                "072403.925000",
                "072405.085000",
                "072406.245000",
                "072407.405000",
                "072408.565000",
                "072409.725000",
                "072410.885000",
                "072412.045000",
                "072413.205000",
                "072414.365000",
                "072415.525000",
                "072416.685000",
                "072417.845000",
                "072419.005000",
                "072420.165000",
                "072421.325000",
                "072422.485000",
                "072423.645000",
                "072424.805000",
                "072425.965000",
                "072427.125000",
                "072428.285000",
                "072429.445000",
                "072430.605000",
                "072431.765000",
                "072432.925000",
                "072434.085000",
                "072435.245000",
                "072436.405000",
                "072437.565000",
                "072438.725000",
                "072439.885000",
                "072441.045000",
                "072442.205000",
                "072443.365000",
                "072444.525000",
                "072445.685000",
                "072446.845000",
                "072448.005000",
                "072449.165000",
                "072450.325000",
                "072451.485000",
                "072452.645000",
                "072453.805000",
                "072454.965000",
                "072456.125000",
                "072457.285000",
                "072458.445000",
                "072459.605000",
                "072500.765000",
                "072501.925000",
                "072503.085000",
                "072504.245000",
                "072505.405000",
                "072506.565000",
                "072507.725000",
                "072508.885000",
                "072510.045000",
                "072511.205000",
                "072512.365000",
                "072513.525000",
                "072514.685000",
                "072515.845000",
                "072517.005000",
                "072518.165000",
                "072519.325000",
                "072520.485000",
                "072521.645000",
                "072522.805000",
                "072523.965000",
                "072525.125000",
                "072526.285000",
                "072527.445000",
                "072528.605000",
                "072529.765000",
                "072530.925000",
                "072532.085000",
                "072533.245000",
                "072534.405000",
                "072535.565000",
                "072536.725000",
                "072537.885000",
                "072539.045000",
                "072540.205000",
                "072541.365000",
                "072542.525000",
                "072543.685000",
                "072544.845000",
                "072546.005000",
                "072547.165000",
                "072548.327500",
                "072549.487500",
                "072550.647500",
                "072551.807500",
                "072552.967500",
                "072554.127500",
                "072555.287500",
                "072556.447500",
                "072557.607500",
                "072558.767500",
                "072559.927500",
                "072601.087500",
                "072602.247500",
                "072603.407500",
                "072604.567500",
                "072605.727500",
                "072606.887500",
                "072608.047500",
                "072609.207500",
                "072610.367500",
                "072611.527500",
                "072612.687500",
                "072613.847500",
                "072615.007500",
                "072616.167500",
                "072617.327500",
                "072618.487500",
                "072619.647500",
                "072620.807500",
                "072621.967500",
                "072623.127500",
                "072624.287500",
                "072625.447500",
                "072626.607500",
                "072627.767500",
                "072628.927500",
                "072630.087500",
                "072631.247500",
                "072632.407500",
                "072633.567500",
                "072634.727500",
                "072635.887500",
                "072637.047500",
                "072638.207500",
                "072639.367500",
                "072640.527500",
                "072641.687500",
                "072642.847500",
                "072644.007500",
                "072645.167500",
                "072646.327500",
                "072647.487500",
                "072648.647500",
                "072649.807500",
                "072650.967500",
                "072652.127500",
                "072653.287500",
                "072654.447500",
                "072655.607500",
                "072656.767500",
                "072657.927500",
                "072659.087500",
                "072700.247500",
                "072701.407500",
                "072702.567500",
                "072703.727500",
                "072704.887500",
                "072706.047500",
                "072707.207500",
                "072708.367500",
                "072709.527500",
                "072710.687500",
                "072711.847500",
                "072713.007500",
                "072714.167500",
                "072715.327500",
                "072716.487500",
                "072717.647500",
                "072718.807500",
                "072719.967500",
                "072721.127500",
                "072722.287500",
                "072723.447500",
                "072724.607500",
                "072725.767500",
                "072726.927500",
                "072728.087500",
                "072729.247500",
                "072730.407500",
                "072731.567500",
                "072732.727500",
                "072733.887500",
                "072735.047500",
                "072736.207500",
                "072737.367500",
                "072738.527500",
                "072739.687500",
                "072740.847500",
                "072742.007500",
                "072743.167500",
                "072744.327500",
                "072745.487500",
                "072746.647500",
                "072747.807500",
                "072748.967500",
                "072750.127500",
                "072751.287500",
                "072752.447500",
                "072753.607500",
                "072754.767500",
                "072755.927500",
                "072757.087500",
                "072758.247500",
                "072759.407500",
                "072800.567500",
                "072801.727500",
                "072802.887500",
                "072804.047500",
                "072805.207500",
                "072806.367500",
                "072807.527500",
                "072808.687500",
                "072809.847500",
                "072811.007500",
                "072812.167500",
                "072813.327500",
                "072814.487500",
                "072815.647500",
                "072816.807500",
                "072817.967500",
                "072819.127500",
                "072820.287500",
                "072821.447500",
                "072822.607500",
                "072823.767500",
                "072824.927500",
                "072826.087500",
                "072827.247500",
                "072828.407500",
                "072829.567500",
                "072830.727500",
                "072831.887500",
                "072833.047500",
                "072834.207500",
                "072835.367500",
                "072836.527500",
                "072837.687500",
                "072838.847500",
                "072840.007500",
                "072841.167500",
                "072842.327500",
                "072843.487500",
                "072844.647500",
                "072845.807500",
                "072846.967500",
                "072848.127500",
                "072849.287500",
                "072850.447500",
                "072851.607500",
                "072852.767500",
                "072853.927500",
                "072855.087500",
                "072856.247500",
                "072857.407500",
                "072858.567500",
                "072859.727500",
                "072900.887500",
                "072902.047500",
                "072903.207500",
                "072904.367500",
                "072905.527500",
                "072906.687500",
                "072907.847500",
                "072909.007500",
                "072910.167500",
                "072911.327500",
                "072912.487500",
                "072913.647500",
                "072914.807500",
                "072915.967500",
                "072917.127500",
                "072918.287500",
                "072919.447500",
                "072920.607500",
                "072921.767500",
                "072922.927500",
                "072924.087500",
                "072925.247500",
                "072926.407500",
                "072927.567500",
                "072928.727500",
                "072929.887500",
                "072931.047500",
                "072932.207500",
                "072933.367500",
                "072934.527500",
                "072935.687500",
                "072936.847500",
                "072938.007500",
                "072939.167500",
                "072940.327500",
                "072941.487500",
                "072942.647500",
                "072943.807500",
                "072944.967500",
                "072946.127500",
                "072947.287500",
                "072948.447500",
                "072949.607500",
                "072950.767500",
                "072951.927500",
                "072953.087500",
                "072954.247500",
                "072955.407500",
                "072956.567500",
                "072957.727500",
                "072958.887500",
                "073000.047500",
                "073001.207500",
                "073002.367500",
                "073003.527500",
                "073004.687500",
                "073005.847500",
                "073007.007500",
                "073008.167500",
                "073009.327500",
                "073010.487500",
                "073011.647500",
                "073012.807500",
                "073013.967500",
                "073015.127500",
                "073016.287500",
                "073017.447500",
                "073018.607500",
                "073019.767500",
                "073020.927500",
                "073022.087500",
                "073023.247500",
                "073024.407500",
                "073025.567500",
                "073026.727500",
                "073027.887500",
                "073029.047500",
                "073030.207500",
