{"AcquisitionMatrixPE": 96, "AcquisitionNumber": 1, "AcquisitionTime": "07:37:4.960000", "BandwidthPerPixelPhaseEncode": 33.602, "BaseResolution": 96, "BodyPartExamined": "BRAIN", "ConsistencyInfo": "N4_VD11D_LATEST_20110129", "ConversionSoftware": "dcm2niix", "ConversionSoftwareVersion": "v1.0.20210317", "DerivedVendorReportedEchoSpacing": 0.000620003, "DeviceSerialNumber": "45239", "DwellTime": 2.6e-06, "EchoTime": 0.03, "EchoTrainLength": 48, "EffectiveEchoSpacing": 0.000310001, "FlipAngle": 63, "ImageComments": "Unaliased MB4/PE3", "ImageOrientationPatientDICOM": [0.999429, 0.0123126, 0.0314535, 0.00645414, 0.844425, -0.535635], "ImageType": ["ORIGINAL", "PRIMARY", "M", "ND", "NORM", "MOSAIC"], "ImagingFrequency": 123.193, "InPlanePhaseEncodingDirectionDICOM": "COL", "InstitutionAddress": "E 24th St. 100,Austin,Southmiddle,US,78712", "InstitutionName": "Univ of Texas at Austin", "InstitutionalDepartmentName": "IRC", "MRAcquisitionType": "2D", "MagneticFieldStrength": 3, "Manufacturer": "Siemens", "ManufacturersModelName": "Skyra", "Modality": "MR", "MultibandAccelerationFactor": 4, "ParallelReductionFactorInPlane": 2, "PartialFourier": 1, "PatientPosition": "HFS", "PercentPhaseFOV": 100, "PercentSampling": 100, "PhaseEncodingDirection": "j-", "PhaseEncodingSteps": 96, "PhaseResolution": 1, "PixelBandwidth": 2005, "ProcedureStepDescription": "Poldrack2^self-scanning", "ProtocolName": "N-back fMRI MBEPI_matrix96_BW200", "PulseSequenceDetails": "%CustomerSeq%\\cmrr_mbep2d_bold", "ReceiveCoilActiveElements": "HEA;HEP", "ReceiveCoilName": "Head_32", "ReconMatrixPE": 96, "RefLinesPE": 94, "RepetitionTime": 1.16, "SAR": 0.0936641, "ScanOptions": "FS", "ScanningSequence": "EP", "SequenceName": "epfid2d1_96", "SequenceVariant": "SK", "SeriesDescription": "N-back fMRI MBEPI_matrix96_BW200", "SeriesNumber": 13, "ShimSetting": [-2780, 8099, -15555, -577, -53, 0, 172, -7], "SliceThickness": 2, "SliceTiming": [0, 0.4975, 0.9975, 0.355, 0.855, 0.2125, 0.7125, 0.07, 0.57, 1.0675, 0.4275, 0.925, 0.285, 0.7825, 0.1425, 0.64, 0, 0.4975, 0.9975, 0.355, 0.855, 0.2125, 0.7125, 0.07, 0.57, 1.0675, 0.4275, 0.925, 0.285, 0.7825, 0.1425, 0.64, 0, 0.4975, 0.9975, 0.355, 0.855, 0.2125, 0.7125, 0.07, 0.57, 1.0675, 0.4275, 0.925, 0.285, 0.7825, 0.1425, 0.64, 0, 0.4975, 0.9975, 0.355, 0.855, 0.2125, 0.7125, 0.07, 0.57, 1.0675, 0.4275, 0.925, 0.285, 0.7825, 0.1425, 0.64], "SoftwareVersions": "syngo MR D11", "SpacingBetweenSlices": 2.4, "StationName": "AWP45239", "TaskName": "N-back task", "TotalReadoutTime": 0.0294501, "TxRefAmp": 333.943, "WipMemBlock": "9c193b69-3d07-4afe-ae0c-e6c31839ca5a||Sequence: VD11D r206; Feb 13 2013 18:52:04 by eja", "dcmmeta_affine": [[-2.3944661617279053, 0.015463053248822689, 0.0795724019408226, 115.41244506835938], [-0.029499046504497528, 2.023101568222046, -1.285277247428894, -72.21076965332031], [0.07535723596811295, 1.2832918167114258, 2.025272846221924, -90.74811553955078], [0.0, 0.0, 0.0, 1.0]], "dcmmeta_reorient_transform": [[0.0, -1.0, 0.0, 95.0], [1.0, 0.0, 0.0, 0.0], [0.0, 0.0, 1.0, 0.0], [0.0, 0.0, 0.0, 1.0]], "dcmmeta_shape": [96, 96, 64, 380], "dcmmeta_slice_dim": 2, "dcmmeta_version": 0.6, "global": {"const": {"AcquisitionMatrix": [96, 0, 0, 96], "AngioFlag": "N", "BitsAllocated": 16, "BitsStored": 16, "BodyPartExamined": "BRAIN", "Columns": 768, "EchoNumbers": 1, "EchoTime": 30.0, "EchoTrainLength": 48, "FlipAngle": 63.0, "HighBit": 15, "ImageOrientationPatient": [0.9994293765955, 0.01231264564651, 0.03145345696605, 0.00645414423648, 0.84442504255016, -0.5356348490682], "ImagePositionPatient": [-926.61764233346, -809.65769812758, 437.0306116855], "ImageType": ["ORIGINAL", "PRIMARY", "M", "ND", "NORM", "MOSAIC"], "ImagedNucleus": "1H", "ImagingFrequency": 123.193427, "InPlanePhaseEncodingDirection": "COL", "MRAcquisitionType": "2D", "MagneticFieldStrength": 3.0, "Manufacturer": "SIEMENS", "ManufacturerModelName": "Skyra", "Modality": "MR", "NumberOfAverages": 1.0, "NumberOfPhaseEncodingSteps": 96, "PercentPhaseFieldOfView": 100.0, "PercentSampling": 100.0, "PerformedProcedureStepStartTime": "071130.921000", "PhotometricInterpretation": "MONOCHROME2", "PixelBandwidth": 2005.0, "PixelRepresentation": 0, "PixelSpacing": [2.3958332538605, 2.3958332538605], "ProtocolName": "N-back fMRI MBEPI_matrix96_BW200", "RepetitionTime": 1160.0, "Rows": 768, "SAR": 0.0936641224405, "SamplesPerPixel": 1, "ScanOptions": "FS", "ScanningSequence": "EP", "SequenceName": "epfid2d1_96", "SequenceVariant": "SK", "SeriesDescription": "N-back fMRI MBEPI_matrix96_BW200", "SeriesNumber": 13, "SeriesTime": "073743.750000", "SliceLocation": -34.081330313356, "SliceThickness": 2.0, "SmallestImagePixelValue": 0, "SoftwareVersions": "syngo MR D11", "SpacingBetweenSlices": 2.3999999878322, "SpecificCharacterSet": "ISO_IR 100", "StudyID": "1", "StudyTime": "071130.875000", "TransmitCoilName": "Body", "VariableFlipAngleFlag": "N", "WindowCenterWidthExplanation": "Algo1", "dBdt": 0.0}, "slices": {}}, "time": {"samples": {"AcquisitionNumber": [1, 2, 3, 4, 5, 6, 7, 8, 9, 10, 11, 12, 13, 14, 15, 16, 17, 18, 19, 20, 21, 22, 23, 24, 25, 26, 27, 28, 29, 30, 31, 32, 33, 34, 35, 36, 37, 38, 39, 40, 41, 42, 43, 44, 45, 46, 47, 48, 49, 50, 51, 52, 53, 54, 55, 56, 57, 58, 59, 60, 61, 62, 63, 64, 65, 66, 67, 68, 69, 70, 71, 72, 73, 74, 75, 76, 77, 78, 79, 80, 81, 82, 83, 84, 85, 86, 87, 88, 89, 90, 91, 92, 93, 94, 95, 96, 97, 98, 99, 100, 101, 102, 103, 104, 105, 106, 107, 108, 109, 110, 111, 112, 113, 114, 115, 116, 117, 118, 119, 120, 121, 122, 123, 124, 125, 126, 127, 128, 129, 130, 131, 132, 133, 134, 135, 136, 137, 138, 139, 140, 141, 142, 143, 144, 145, 146, 147, 148, 149, 150, 151, 152, 153, 154, 155, 156, 157, 158, 159, 160, 161, 162, 163, 164, 165, 166, 167, 168, 169, 170, 171, 172, 173, 174, 175, 176, 177, 178, 179, 180, 181, 182, 183, 184, 185, 186, 187, 188, 189, 190, 191, 192, 193, 194, 195, 196, 197, 198, 199, 200, 201, 202, 203, 204, 205, 206, 207, 208, 209, 210, 211, 212, 213, 214, 215, 216, 217, 218, 219, 220, 221, 222, 223, 224, 225, 226, 227, 228, 229, 230, 231, 232, 233, 234, 235, 236, 237, 238, 239, 240, 241, 242, 243, 244, 245, 246, 247, 248, 249, 250, 251, 252, 253, 254, 255, 256, 257, 258, 259, 260, 261, 262, 263, 264, 265, 266, 267, 268, 269, 270, 271, 272, 273, 274, 275, 276, 277, 278, 279, 280, 281, 282, 283, 284, 285, 286, 287, 288, 289, 290, 291, 292, 293, 294, 295, 296, 297, 298, 299, 300, 301, 302, 303, 304, 305, 306, 307, 308, 309, 310, 311, 312, 313, 314, 315, 316, 317, 318, 319, 320, 321, 322, 323, 324, 325, 326, 327, 328, 329, 330, 331, 332, 333, 334, 335, 336, 337, 338, 339, 340, 341, 342, 343, 344, 345, 346, 347, 348, 349, 350, 351, 352, 353, 354, 355, 356, 357, 358, 359, 360, 361, 362, 363, 364, 365, 366, 367, 368, 369, 370, 371, 372, 373, 374, 375, 376, 377, 378, 379, 380], "AcquisitionTime": ["073704.960000", "073733.960000", "073735.120000", "073736.280000", "073737.440000", "073738.600000", "073739.760000", "073740.920000", "073742.080000", "073743.240000", "073744.400000", "073745.560000", "073746.720000", "073747.880000", "073749.040000", "073750.200000", "073751.360000", "073752.520000", "073753.680000", "073754.840000", "073756.000000", "073757.160000", "073758.320000", "073759.480000", "073800.640000", "073801.800000", "073802.960000", "073804.120000", "073805.280000", "073806.440000", "073807.600000", "073808.760000", "073809.920000", "073811.080000", "073812.240000", "073813.400000", "073814.560000", "073815.720000", "073816.880000", "073818.040000", "073819.200000", "073820.360000", "073821.520000", "073822.680000", "073823.840000", "073825.000000", "073826.160000", "073827.320000", "073828.480000", "073829.640000", "073830.800000", "073831.960000", "073833.120000", "073834.280000", "073835.440000", "073836.600000", "073837.760000", "073838.920000", "073840.080000", "073841.240000", "073842.400000", "073843.560000", "073844.720000", "073845.880000", "073847.040000", "073848.200000", "073849.360000", "073850.520000", "073851.680000", "073852.840000", "073854.000000", "073855.160000", "073856.320000", "073857.480000", "073858.640000", "073859.800000", "073900.960000", "073902.120000", "073903.280000", "073904.440000", "073905.600000", "073906.760000", "073907.920000", "073909.080000", "073910.240000", "073911.400000", "073912.560000", "073913.720000", "073914.880000", "073916.040000", "073917.200000", "073918.360000", "073919.520000", "073920.680000", "073921.840000", "073923.000000", "073924.160000", "073925.320000", "073926.480000", "073927.640000", "073928.800000", "073929.960000", "073931.120000", "073932.280000", "073933.440000", "073934.600000", "073935.760000", "073936.920000", "073938.080000", "073939.240000", "073940.400000", "073941.560000", "073942.720000", "073943.880000", "073945.040000", "073946.200000", "073947.360000", "073948.520000", "073949.680000", "073950.840000", "073952.000000", "073953.160000", "073954.320000", "073955.480000", "073956.640000", "073957.800000", "073958.960000", "074000.120000", "074001.280000", "074002.440000", "074003.600000", "074004.760000", "074005.920000", "074007.080000", "074008.240000", "074009.400000", "074010.560000", "074011.722500", "074012.882500", "074014.042500", "074015.202500", "074016.362500", "074017.522500", "074018.682500", "074019.842500", "074021.002500", "074022.162500", "074023.322500", "074024.482500", "074025.642500", "074026.802500", "074027.962500", "074029.122500", "074030.282500", "074031.442500", "074032.602500", "074033.762500", "074034.922500", "074036.082500", "074037.242500", "074038.402500", "074039.562500", "074040.722500", "074041.882500", "074043.042500", "074044.202500", "074045.362500", "074046.522500", "074047.682500", "074048.842500", "074050.002500", "074051.162500", "074052.322500", "074053.482500", "074054.642500", "074055.802500", "074056.962500", "074058.122500", "074059.282500", "074100.442500", "074101.602500", "074102.762500", "074103.922500", "074105.082500", "074106.242500", "074107.402500", "074108.562500", "074109.722500", "074110.882500", "074112.042500", "074113.202500", "074114.362500", "074115.522500", "074116.682500", "074117.842500", "074119.002500", "074120.162500", "074121.322500", "074122.482500", "074123.642500", "074124.802500", "074125.962500", "074127.122500", "074128.282500", "074129.442500", "074130.602500", "074131.762500", "074132.922500", "074134.082500", "074135.242500", "074136.402500", "074137.562500", "074138.722500", "074139.882500", "074141.042500", "074142.202500", "074143.362500", "074144.522500", "074145.682500", "074146.842500", "074148.002500", "074149.162500", "074150.322500", "074151.482500", "074152.642500", "074153.802500", "074154.962500", "074156.122500", "074157.282500", "074158.442500", "074159.602500", "074200.762500", "074201.922500", "074203.082500", "074204.242500", "074205.402500", "074206.562500", "074207.722500", "074208.882500", "074210.042500", "074211.202500", "074212.362500", "074213.522500", "074214.682500", "074215.842500", "074217.002500", "074218.162500", "074219.322500", "074220.482500", "074221.642500", "074222.802500", "074223.962500", "074225.122500", "074226.282500", "074227.442500", "074228.602500", "074229.762500", "074230.922500", "074232.082500", "074233.242500", "074234.402500", "074235.562500", "074236.722500", "074237.882500", "074239.042500", "074240.202500", "074241.362500", "074242.522500", "074243.682500", "074244.842500", "074246.002500", "074247.162500", "074248.322500", "074249.482500", "074250.642500", "074251.802500", "074252.962500", "074254.122500", "074255.282500", "074256.442500", "074257.602500", "074258.762500", "074259.922500", "074301.082500", "074302.242500", "074303.402500", "074304.562500", "074305.722500", "074306.882500", "074308.042500", "074309.202500", "074310.362500", "074311.522500", "074312.682500", "074313.842500", "074315.002500", "074316.162500", "074317.322500", "074318.482500", "074319.642500", "074320.802500", "074321.962500", "074323.122500", "074324.282500", "074325.442500", "074326.602500", "074327.762500", "074328.922500", "074330.082500", "074331.242500", "074332.402500", "074333.562500", "074334.722500", "074335.882500", "074337.042500", "074338.202500", "074339.362500", "074340.522500", "074341.682500", "074342.842500", "074344.002500", "074345.162500", "074346.322500", "074347.482500", "074348.642500", "074349.802500", "074350.962500", "074352.122500", "074353.282500", "074354.442500", "074355.602500", "074356.762500", "074357.922500", "074359.082500", "074400.242500", "074401.402500", "074402.562500", "074403.722500", "074404.882500", "074406.042500", "074407.202500", "074408.362500", "074409.522500", "074410.682500", "074411.842500", "074413.002500", "074414.162500", "074415.322500", "074416.482500", "074417.642500", "074418.802500", "074419.962500", "074421.122500", "074422.282500", "074423.442500", "074424.602500", "074425.762500", "074426.922500", "074428.082500", "074429.242500", "074430.402500", "074431.562500", "074432.722500", "074433.882500", "074435.042500", "074436.202500", "074437.362500", "074438.522500", "074439.682500", "074440.842500", "074442.002500", "074443.162500", "074444.322500", "074445.482500", "074446.642500", "074447.802500", "074448.962500", "074450.122500", "074451.282500", "074452.442500"], "ContentTime": ["073743.750000", "073751.828000", "073751.828000", "073751.828000", "073751.828000", "073751.828000", "073751.843000", "073756.828000", "073756.828000", "073756.828000", "073756.828000", "073801.828000", "073801.828000", "073801.828000", "073806.828000", "073806.828000", "073806.828000", "073806.828000", "073811.828000", "073811.828000", "073811.828000", "073811.828000", "073816.828000", "073816.828000", "073816.828000", "073821.828000", "073821.828000", "073821.828000", "073821.828000", "073826.828000", "073826.828000", "073826.828000", "073826.828000", "073831.828000", "073831.828000", "073831.828000", "073836.828000", "073836.828000", "073836.828000", "073836.828000", "073841.828000", "073841.828000", "073841.828000", "073846.828000", "073846.828000", "073846.828000", "073846.828000", "073846.828000", "073851.828000", "073851.828000", "073851.828000", "073856.828000", "073856.828000", "073856.828000", "073856.828000", "073901.828000", "073901.828000", "073901.828000", "073901.828000", "073906.828000", "073906.843000", "073906.843000", "073906.843000", "073911.828000", "073911.828000", "073911.828000", "073911.828000", "073916.828000", "073916.828000", "073916.843000", "073921.828000", "073921.828000", "073921.828000", "073921.843000", "073926.828000", "073926.828000", "073926.828000", "073926.828000", "073931.828000", "073931.828000", "073931.828000", "073931.828000", "073936.828000", "073936.828000", "073936.828000", "073936.828000", "073941.828000", "073941.828000", "073941.828000", "073941.828000", "073946.828000", "073946.828000", "073946.828000", "073946.828000", "073951.828000", "073951.828000", "073951.828000", "073956.828000", "073956.828000", "073956.828000", "073956.828000", "074001.828000", "074001.828000", "074001.828000", "074006.828000", "074006.828000", "074006.828000", "074006.828000", "074011.828000", "074011.828000", "074011.828000", "074011.828000", "074016.828000", "074016.828000", "074016.828000", "074016.828000", "074021.828000", "074021.828000", "074021.828000", "074021.828000", "074026.828000", "074026.828000", "074026.828000", "074031.828000", "074031.828000", "074031.828000", "074031.828000", "074036.828000", "074036.828000", "074036.828000", "074036.828000", "074041.828000", "074041.828000", "074041.828000", "074046.828000", "074046.828000", "074046.828000", "074046.828000", "074051.828000", "074051.828000", "074051.828000", "074051.828000", "074056.828000", "074056.828000", "074056.828000", "074101.828000", "074101.828000", "074101.828000", "074101.828000", "074106.828000", "074106.828000", "074106.828000", "074106.828000", "074111.828000", "074111.828000", "074111.828000", "074111.828000", "074116.828000", "074116.828000", "074116.828000", "074121.828000", "074121.828000", "074121.828000", "074121.828000", "074126.828000", "074126.828000", "074126.828000", "074126.828000", "074131.828000", "074131.828000", "074131.828000", "074136.828000", "074136.828000", "074136.828000", "074136.828000", "074141.828000", "074141.828000", "074141.843000", "074141.843000", "074146.828000", "074146.828000", "074146.828000", "074151.828000", "074151.828000", "074151.828000", "074151.828000", "074151.828000", "074156.828000", "074156.828000", "074156.828000", "074201.828000", "074201.828000", "074201.828000", "074201.828000", "074206.828000", "074206.828000", "074206.828000", "074206.828000", "074211.828000", "074211.828000", "074211.828000", "074211.828000", "074216.828000", "074216.828000", "074216.828000", "074221.828000", "074221.828000", "074221.828000", "074221.828000", "074226.828000", "074226.828000", "074226.828000", "074231.828000", "074231.828000", "074231.828000", "074231.843000", "074236.828000", "074236.828000", "074236.828000", "074236.828000", "074241.828000", "074241.828000", "074241.828000", "074246.828000", "074246.828000", "074246.828000", "074246.828000", "074251.828000", "074251.828000", "074251.828000", "074251.828000", "074256.828000", "074256.828000", "074256.828000", "074301.828000", "074301.828000", "074301.828000", "074301.843000", "074306.828000", "074306.828000", "074306.828000", "074311.828000", "074311.828000", "074311.828000", "074311.828000", "074316.828000", "074316.828000", "074316.828000", "074316.828000", "074321.828000", "074321.828000", "074321.828000", "074326.828000", "074326.828000", "074326.828000", "074326.828000", "074331.828000", "074331.828000", "074331.859000", "074331.859000", "074336.828000", "074336.828000", "074336.828000", "074336.828000", "074341.828000", "074341.828000", "074341.828000", "074346.828000", "074346.828000", "074346.828000", "074346.828000", "074351.828000", "074351.828000", "074351.828000", "074351.828000", "074356.828000", "074356.828000", "074356.843000", "074356.843000", "074401.828000", "074401.828000", "074401.828000", "074406.828000", "074406.828000", "074406.828000", "074406.828000", "074411.828000", "074411.828000", "074411.828000", "074411.843000", "074416.828000", "074416.828000", "074416.828000", "074416.828000", "074421.828000", "074421.828000", "074421.828000", "074421.828000", "074426.828000", "074426.828000", "074426.828000", "074426.843000", "074431.828000", "074431.828000", "074431.828000", "074436.828000", "074436.828000", "074436.828000", "074436.828000", "074441.828000", "074441.828000", "074441.828000", "074441.828000", "074446.828000", "074446.828000", "074446.828000", "074451.828000", "074451.828000", "074451.828000", "074451.828000", "074456.828000", "074456.828000", "074456.828000", "074456.828000", "074501.828000", "074501.828000", "074501.843000", "074501.843000", "074506.828000", "074506.828000", "074506.828000", "074506.828000", "074511.828000", "074511.828000", "074511.828000", "074511.828000", "074516.828000", "074516.828000", "074516.828000", "074516.828000", "074521.828000", "074521.828000", "074521.828000", "074521.828000", "074526.828000", "074526.828000", "074526.828000", "074526.828000", "074531.828000", "074531.828000", "074531.828000", "074531.828000", "074536.828000", "074536.828000", "074536.828000", "074536.828000", "074541.828000", "074541.828000", "074541.828000", "074541.828000", "074546.828000", "074546.828000", "074546.828000", "074546.828000", "074551.828000", "074551.828000", "074551.828000", "074551.828000", "074556.828000", "074556.828000", "074556.828000", "074556.828000", "074601.828000", "074601.828000", "074601.828000", "074601.828000", "074605.765000", "074605.765000", "074605.765000", "074605.765000"], "InstanceCreationTime": ["073743.750000", "073751.828000", "073751.828000", "073751.828000", "073751.828000", "073751.828000", "073751.843000", "073756.828000", "073756.828000", "073756.828000", "073756.828000", "073801.828000", "073801.828000", "073801.828000", "073806.828000", "073806.828000", "073806.828000", "073806.828000", "073811.828000", "073811.828000", "073811.828000", "073811.828000", "073816.828000", "073816.828000", "073816.828000", "073821.828000", "073821.828000", "073821.828000", "073821.828000", "073826.828000", "073826.828000", "073826.828000", "073826.828000", "073831.828000", "073831.828000", "073831.828000", "073836.828000", "073836.828000", "073836.828000", "073836.828000", "073841.828000", "073841.828000", "073841.828000", "073846.828000", "073846.828000", "073846.828000", "073846.828000", "073846.828000", "073851.828000", "073851.828000", "073851.828000", "073856.828000", "073856.828000", "073856.828000", "073856.828000", "073901.828000", "073901.828000", "073901.828000", "073901.828000", "073906.828000", "073906.843000", "073906.843000", "073906.843000", "073911.828000", "073911.828000", "073911.828000", "073911.828000", "073916.828000", "073916.828000", "073916.843000", "073921.828000", "073921.828000", "073921.828000", "073921.843000", "073926.828000", "073926.828000", "073926.828000", "073926.828000", "073931.828000", "073931.828000", "073931.828000", "073931.828000", "073936.828000", "073936.828000", "073936.828000", "073936.828000", "073941.828000", "073941.828000", "073941.828000", "073941.828000", "073946.828000", "073946.828000", "073946.828000", "073946.828000", "073951.828000", "073951.828000", "073951.828000", "073956.828000", "073956.828000", "073956.828000", "073956.828000", "074001.828000", "074001.828000", "074001.828000", "074006.828000", "074006.828000", "074006.828000", "074006.828000", "074011.828000", "074011.828000", "074011.828000", "074011.828000", "074016.828000", "074016.828000", "074016.828000", "074016.828000", "074021.828000", "074021.828000", "074021.828000", "074021.828000", "074026.828000", "074026.828000", "074026.828000", "074031.828000", "074031.828000", "074031.828000", "074031.828000", "074036.828000", "074036.828000", "074036.828000", "074036.828000", "074041.828000", "074041.828000", "074041.828000", "074046.828000", "074046.828000", "074046.828000", "074046.828000", "074051.828000", "074051.828000", "074051.828000", "074051.828000", "074056.828000", "074056.828000", "074056.828000", "074101.828000", "074101.828000", "074101.828000", "074101.828000", "074106.828000", "074106.828000", "074106.828000", "074106.828000", "074111.828000", "074111.828000", "074111.828000", "074111.828000", "074116.828000", "074116.828000", "074116.828000", "074121.828000", "074121.828000", "074121.828000", "074121.828000", "074126.828000", "074126.828000", "074126.828000", "074126.828000", "074131.828000", "074131.828000", "074131.828000", "074136.828000", "074136.828000", "074136.828000", "074136.828000", "074141.828000", "074141.828000", "074141.843000", "074141.843000", "074146.828000", "074146.828000", "074146.828000", "074151.828000", "074151.828000", "074151.828000", "074151.828000", "074151.828000", "074156.828000", "074156.828000", "074156.828000", "074201.828000", "074201.828000", "074201.828000", "074201.828000", "074206.828000", "074206.828000", "074206.828000", "074206.828000", "074211.828000", "074211.828000", "074211.828000", "074211.828000", "074216.828000", "074216.828000", "074216.828000", "074221.828000", "074221.828000", "074221.828000", "074221.828000", "074226.828000", "074226.828000", "074226.828000", "074231.828000", "074231.828000", "074231.828000", "074231.843000", "074236.828000", "074236.828000", "074236.828000", "074236.828000", "074241.828000", "074241.828000", "074241.828000", "074246.828000", "074246.828000", "074246.828000", "074246.828000", "074251.828000", "074251.828000", "074251.828000", "074251.828000", "074256.828000", "074256.828000", "074256.828000", "074301.828000", "074301.828000", "074301.828000", "074301.843000", "074306.828000", "074306.828000", "074306.828000", "074311.828000", "074311.828000", "074311.828000", "074311.828000", "074316.828000", "074316.828000", "074316.828000", "074316.828000", "074321.828000", "074321.828000", "074321.828000", "074326.828000", "074326.828000", "074326.828000", "074326.828000", "074331.828000", "074331.828000", "074331.859000", "074331.859000", "074336.828000", "074336.828000", "074336.828000", "074336.828000", "074341.828000", "074341.828000", "074341.828000", "074346.828000", "074346.828000", "074346.828000", "074346.828000", "074351.828000", "074351.828000", "074351.828000", "074351.828000", "074356.828000", "074356.828000", "074356.843000", "074356.843000", "074401.828000", "074401.828000", "074401.828000", "074406.828000", "074406.828000", "074406.828000", "074406.828000", "074411.828000", "074411.828000", "074411.828000", "074411.843000", "074416.828000", "074416.828000", "074416.828000", "074416.828000", "074421.828000", "074421.828000", "074421.828000", "074421.828000", "074426.828000", "074426.828000", "074426.828000", "074426.843000", "074431.828000", "074431.828000", "074431.828000", "074436.828000", "074436.828000", "074436.828000", "074436.828000", "074441.828000", "074441.828000", "074441.828000", "074441.828000", "074446.828000", "074446.828000", "074446.828000", "074451.828000", "074451.828000", "074451.828000", "074451.828000", "074456.828000", "074456.828000", "074456.828000", "074456.828000", "074501.828000", "074501.828000", "074501.843000", "074501.843000", "074506.828000", "074506.828000", "074506.828000", "074506.828000", "074511.828000", "074511.828000", "074511.828000", "074511.828000", "074516.828000", "074516.828000", "074516.828000", "074516.828000", "074521.828000", "074521.828000", "074521.828000", "074521.828000", "074526.828000", "074526.828000", "074526.828000", "074526.828000", "074531.828000", "074531.828000", "074531.828000", "074531.828000", "074536.828000", "074536.828000", "074536.828000", "074536.828000", "074541.828000", "074541.828000", "074541.828000", "074541.828000", "074546.828000", "074546.828000", "074546.828000", "074546.828000", "074551.828000", "074551.828000", "074551.828000", "074551.828000", "074556.828000", "074556.828000", "074556.828000", "074556.828000", "074601.828000", "074601.828000", "074601.828000", "074601.828000", "074605.765000", "074605.765000", "074605.765000", "074605.765000"], "InstanceNumber": [1, 2, 3, 4, 5, 6, 7, 8, 9, 10, 11, 12, 13, 14, 15, 16, 17, 18, 19, 20, 21, 22, 23, 24, 25, 26, 27, 28, 29, 30, 31, 32, 33, 34, 35, 36, 37, 38, 39, 40, 41, 42, 43, 44, 45, 46, 47, 48, 49, 50, 51, 52, 53, 54, 55, 56, 57, 58, 59, 60, 61, 62, 63, 64, 65, 66, 67, 68, 69, 70, 71, 72, 73, 74, 75, 76, 77, 78, 79, 80, 81, 82, 83, 84, 85, 86, 87, 88, 89, 90, 91, 92, 93, 94, 95, 96, 97, 98, 99, 100, 101, 102, 103, 104, 105, 106, 107, 108, 109, 110, 111, 112, 113, 114, 115, 116, 117, 118, 119, 120, 121, 122, 123, 124, 125, 126, 127, 128, 129, 130, 131, 132, 133, 134, 135, 136, 137, 138, 139, 140, 141, 142, 143, 144, 145, 146, 147, 148, 149, 150, 151, 152, 153, 154, 155, 156, 157, 158, 159, 160, 161, 162, 163, 164, 165, 166, 167, 168, 169, 170, 171, 172, 173, 174, 175, 176, 177, 178, 179, 180, 181, 182, 183, 184, 185, 186, 187, 188, 189, 190, 191, 192, 193, 194, 195, 196, 197, 198, 199, 200, 201, 202, 203, 204, 205, 206, 207, 208, 209, 210, 211, 212, 213, 214, 215, 216, 217, 218, 219, 220, 221, 222, 223, 224, 225, 226, 227, 228, 229, 230, 231, 232, 233, 234, 235, 236, 237, 238, 239, 240, 241, 242, 243, 244, 245, 246, 247, 248, 249, 250, 251, 252, 253, 254, 255, 256, 257, 258, 259, 260, 261, 262, 263, 264, 265, 266, 267, 268, 269, 270, 271, 272, 273, 274, 275, 276, 277, 278, 279, 280, 281, 282, 283, 284, 285, 286, 287, 288, 289, 290, 291, 292, 293, 294, 295, 296, 297, 298, 299, 300, 301, 302, 303, 304, 305, 306, 307, 308, 309, 310, 311, 312, 313, 314, 315, 316, 317, 318, 319, 320, 321, 322, 323, 324, 325, 326, 327, 328, 329, 330, 331, 332, 333, 334, 335, 336, 337, 338, 339, 340, 341, 342, 343, 344, 345, 346, 347, 348, 349, 350, 351, 352, 353, 354, 355, 356, 357, 358, 359, 360, 361, 362, 363, 364, 365, 366, 367, 368, 369, 370, 371, 372, 373, 374, 375, 376, 377, 378, 379, 380], "LargestImagePixelValue": [25594, 25389, 25488, 24951, 24927, 24877, 25152, 24882, 24976, 24934, 24878, 24955, 24796, 24966, 24862, 24938, 24787, 24734, 24809, 25056, 24666, 24862, 25125, 24868, 25054, 24979, 24858, 24933, 24930, 24763, 24716, 24849, 24912, 24637, 24794, 24888, 24976, 24908, 24716, 24808, 24777, 24863, 24720, 24865, 24830, 24747, 24681, 25006, 24794, 24921, 25013, 24973, 24837, 25081, 24770, 25164, 24978, 25039, 25079, 24698, 25078, 25034, 24996, 24996, 24941, 25194, 24918, 24959, 25012, 25207, 24986, 24845, 24920, 24923, 25122, 24843, 24871, 25219, 25066, 24982, 24920, 25130, 25215, 24818, 25102, 24909, 25076, 24918, 24846, 24909, 24949, 24882, 25111, 24922, 25099, 24988, 25219, 25013, 25011, 25258, 25046, 25408, 24833, 25028, 25124, 24992, 24964, 24708, 25198, 24929, 24813, 24826, 24919, 24898, 25052, 24936, 25122, 24879, 24942, 25079, 24908, 24928, 24828, 25196, 25232, 25084, 24992, 24801, 24866, 25009, 24922, 25237, 24877, 24906, 24792, 25065, 25127, 24726, 24815, 24910, 24837, 24920, 24862, 24891, 24797, 24934, 24763, 24877, 24975, 25036, 24988, 24784, 25255, 24856, 24856, 24758, 24690, 24848, 24999, 25305, 24840, 25037, 25113, 24849, 24701, 24785, 24935, 24812, 24912, 24802, 24693, 24927, 24728, 24791, 24739, 24856, 24924, 24913, 24776, 24969, 24709, 24870, 24749, 24728, 24719, 24771, 24555, 25003, 24787, 24732, 25118, 25250, 24588, 24646, 24795, 24756, 24801, 25056, 24792, 24780, 24713, 24831, 24778, 24703, 24833, 24850, 24676, 24926, 24507, 24668, 24983, 24916, 24914, 24814, 24566, 24808, 24981, 24878, 24840, 24622, 24861, 24819, 24673, 24878, 24617, 24728, 24816, 24634, 24891, 24488, 24574, 24662, 24756, 24712, 24564, 24594, 24626, 24586, 24816, 24882, 24345, 24502, 24646, 24546, 24892, 24785, 24403, 24670, 24619, 24864, 24719, 24510, 24465, 24856, 24861, 24619, 24647, 24819, 24925, 24648, 24473, 24593, 24766, 24606, 24879, 24539, 24719, 24567, 24722, 24821, 24548, 24850, 24516