{"AcquisitionMatrixPE": 96, "AcquisitionNumber": 1, "AcquisitionTime": "17:19:3.085000", "BaseResolution": 96, "BodyPartExamined": "BRAIN", "ConsistencyInfo": "N4_VD11D_LATEST_20110129", "ConversionSoftware": "dcm2niix", "ConversionSoftwareVersion": "v1.0.20210317", "DeviceSerialNumber": "45239", "DwellTime": 9.2e-06, "EchoNumber": 2, "EchoTime": 0.00738, "EchoTime1": 0.00492, "EchoTime2": 0.00738, "FlipAngle": 50, "ImageOrientationPatientDICOM": [0.999586, -0.025664, 0.0130201, 0.0287779, 0.891428, -0.452247], "ImageType": ["ORIGINAL", "PRIMARY", "P", "ND", "PHASE"], "ImagingFrequency": 123.193, "InPlanePhaseEncodingDirectionDICOM": "COL", "InstitutionAddress": "E 24th St. 100,Austin,Southmiddle,US,78712", "InstitutionName": "Univ of Texas at Austin", "InstitutionalDepartmentName": "IRC", "MRAcquisitionType": "2D", "MagneticFieldStrength": 3, "Manufacturer": "Siemens", "ManufacturersModelName": "Skyra", "Modality": "MR", "MultibandAccelerationFactor": 2, "PartialFourier": 1, "PatientPosition": "HFS", "PercentPhaseFOV": 100, "PercentSampling": 100, "PhaseEncodingDirection": "j-", "PhaseEncodingSteps": 96, "PhaseResolution": 1, "PixelBandwidth": 565, "ProcedureStepDescription": "Poldrack2^self-scanning", "ProtocolName": "gre_field_mapping", "PulseSequenceDetails": "%SiemensSeq%\\gre_field_mapping", "ReceiveCoilActiveElements": "HEA;HEP", "ReceiveCoilName": "Head_32", "ReconMatrixPE": 96, "RepetitionTime": 0.731, "SAR": 0.116338, "ScanningSequence": "GR", "SequenceName": "*fm2d2r", "SequenceVariant": "SP", "SeriesDescription": "gre_field_mapping", "SeriesNumber": 11, "ShimSetting": [-2772, 8058, -15432, 204, -195, 89, 194, -66], "SliceThickness": 2, "SliceTiming": [0.35938, 0, 0.375, 0.01562, 0.39062, 0.03125, 0.40625, 0.03125, 0.40625, 0.04688, 0.42188, 0.0625, 0.4375, 0.0625, 0.4375, 0.07812, 0.45312, 0.09375, 0.46875, 0.09375, 0.46875, 0.10938, 0.48438, 0.125, 0.5, 0.125, 0.5, 0.14062, 0.51562, 0.15625, 0.53125, 0.15625, 0.53125, 0.17188, 0.54688, 0.1875, 0.5625, 0.1875, 0.57812, 0.20312, 0.57812, 0.21875, 0.59375, 0.21875, 0.60938, 0.23438, 0.60938, 0.25, 0.625, 0.26562, 0.64062, 0.26562, 0.64062, 0.28125, 0.65625, 0.29688, 0.67188, 0.29688, 0.67188, 0.3125, 0.6875, 0.32812, 0.70312, 0.32812, 0.71875, 0.34375, 0.71875, 0.35938], "SoftwareVersions": "syngo MR D11", "SpacingBetweenSlices": 2.4, "StationName": "AWP45239", "TxRefAmp": 343.564, "dcmmeta_affine": [[-2.394840955734253, 0.06894697993993759, 0.0, 117.5572738647461], [0.06148677319288254, 2.1357133388519287, -1.0858421325683594, -83.74678802490234], [0.031193960458040237, 1.0835092067718506, 2.1403121948242188, -82.83647155761719], [0.0, 0.0, 0.0, 1.0]], "dcmmeta_reorient_transform": [[0.0, -1.0, 0.0, 95.0], [1.0, 0.0, 0.0, 0.0], [0.0, 0.0, -1.0, 67.0], [0.0, 0.0, 0.0, 1.0]], "dcmmeta_shape": [96, 96, 68], "dcmmeta_slice_dim": 2, "dcmmeta_version": 0.6, "global": {"const": {"AcquisitionMatrix": [96, 0, 0, 96], "AcquisitionNumber": 1, "AngioFlag": "N", "BitsAllocated": 16, "BitsStored": 12, "BodyPartExamined": "BRAIN", "Columns": 96, "EchoNumbers": 2, "EchoTime": 7.38, "EchoTrainLength": 0, "FlipAngle": 50.0, "HighBit": 11, "ImageOrientationPatient": [0.99958583128965, -0.025664044709, 0.01302008810052, 0.02877787144614, 0.89142818108415, -0.452247312965], "ImageType": ["ORIGINAL", "PRIMARY", "P", "ND"], "ImagedNucleus": "1H", "ImagingFrequency": 123.193243, "InPlanePhaseEncodingDirection": "COL", "MRAcquisitionType": "2D", "MagneticFieldStrength": 3.0, "Manufacturer": "SIEMENS", "ManufacturerModelName": "Skyra", "Modality": "MR", "NumberOfAverages": 1.0, "NumberOfPhaseEncodingSteps": 96, "PercentPhaseFieldOfView": 100.0, "PercentSampling": 100.0, "PerformedProcedureStepStartTime": "165318.734000", "PhotometricInterpretation": "MONOCHROME2", "PixelBandwidth": 565.0, "PixelRepresentation": 0, "PixelSpacing": [2.3958332538605, 2.3958332538605], "ProtocolName": "gre_field_mapping", "RepetitionTime": 731.0, "RescaleIntercept": -4096.0, "RescaleSlope": 2.0, "RescaleType": "US", "Rows": 96, "SAR": 0.11633826769396, "SamplesPerPixel": 1, "ScanningSequence": "GR", "SequenceName": "*fm2d2r", "SequenceVariant": "SP", "SeriesDescription": "gre_field_mapping", "SeriesNumber": 11, "SeriesTime": "172124.187000", "SliceThickness": 2.0, "SoftwareVersions": "syngo MR D11", "SpacingBetweenSlices": 2.4, "SpecificCharacterSet": "ISO_IR 100", "StudyID": "2", "StudyTime": "165318.703000", "TransmitCoilName": "Body", "VariableFlipAngleFlag": "N", "WindowCenterWidthExplanation": "Algo1", "dBdt": 0.0}, "slices": {"AcquisitionTime": ["171903.085000", "171902.720000", "171903.097500", "171902.730000", "171903.107500", "171902.742500", "171903.117500", "171902.752500", "171903.127500", "171902.762500", "171903.140000", "171902.775000", "171903.150000", "171902.785000", "171903.160000", "171902.795000", "171903.172500", "171902.805000", "171903.182500", "171902.817500", "171903.192500", "171902.827500", "171903.205000", "171902.837500", "171903.215000", "171902.850000", "171903.225000", "171902.860000", "171903.235000", "171902.870000", "171903.247500", "171902.882500", "171903.257500", "171902.892500", "171903.267500", "171902.902500", "171903.280000", "171902.912500", "171903.290000", "171902.925000", "171903.300000", "171902.935000", "171903.312500", "171902.945000", "171903.322500", "171902.957500", "171903.332500", "171902.967500", "171903.342500", "171902.977500", "171903.355000", "171902.990000", "171903.365000", "171903.000000", "171903.375000", "171903.010000", "171903.387500", "171903.020000", "171903.397500", "171903.032500", "171903.407500", "171903.042500", "171903.420000", "171903.052500", "171903.430000", "171903.065000", "171903.440000", "171903.075000"], "ContentTime": ["172124.265000", "172124.187000", "172124.265000", "172124.203000", "172124.265000", "172124.203000", "172124.265000", "172124.203000", "172124.265000", "172124.203000", "172124.265000", "172124.203000", "172124.281000", "172124.203000", "172124.281000", "172124.203000", "172124.281000", "172124.203000", "172124.281000", "172124.218000", "172124.281000", "172124.218000", "172124.281000", "172124.218000", "172124.281000", "172124.218000", "172124.281000", "172124.218000", "172124.296000", "172124.218000", "172124.296000", "172124.218000", "172124.296000", "172124.234000", "172124.296000", "172124.234000", "172124.296000", "172124.234000", "172124.296000", "172124.234000", "172124.312000", "172124.234000", "172124.312000", "172124.234000", "172124.312000", "172124.234000", "172124.312000", "172124.234000", "172124.312000", "172124.250000", "172124.312000", "172124.250000", "172124.312000", "172124.250000", "172124.312000", "172124.250000", "172124.328000", "172124.250000", "172124.515000", "172124.250000", "172124.515000", "172124.250000", "172124.515000", "172124.250000", "172124.515000", "172124.250000", "172124.562000", "172124.265000"], "CsaImage.GSWDDataType": ["predicted", "predicted", "predicted", "predicted", "predicted", "predicted", "predicted", "predicted", "measured", "predicted", "measured", "predicted", "measured", "predicted", "measured", "predicted", "measured", "predicted", "measured", "predicted", "measured", "predicted", "measured", "predicted", "measured", "predicted", "measured", "predicted", "measured", "predicted", "measured", "predicted", "measured", "predicted", "measured", "predicted", "measured", "predicted", "measured", "predicted", "measured", "predicted", "measured", "predicted", "measured", "predicted", "measured", "predicted", "measured", "predicted", "measured", "predicted", "measured", "predicted", "measured", "predicted", "measured", "predicted", "measured", "predicted", "measured", "predicted", "measured", "predicted", "measured", "predicted", "measured", "predicted"], "CsaImage.ICE_Dims": ["X_2_1_1_1_1_1_35_1_1_1_1_406", "X_2_1_1_1_1_1_1_1_1_2_1_406", "X_2_1_1_1_1_1_36_1_1_3_1_406", "X_2_1_1_1_1_1_2_1_1_4_1_406", "X_2_1_1_1_1_1_37_1_1_5_1_406", "X_2_1_1_1_1_1_3_1_1_6_1_406", "X_2_1_1_1_1_1_38_1_1_7_1_406", "X_2_1_1_1_1_1_4_1_1_8_1_406", "X_2_1_1_1_1_1_39_1_1_9_1_406", "X_2_1_1_1_1_1_5_1_1_10_1_406", "X_2_1_1_1_1_1_40_1_1_11_1_406", "X_2_1_1_1_1_1_6_1_1_12_1_406", "X_2_1_1_1_1_1_41_1_1_13_1_406", "X_2_1_1_1_1_1_7_1_1_14_1_406", "X_2_1_1_1_1_1_42_1_1_15_1_406", "X_2_1_1_1_1_1_8_1_1_16_1_406", "X_2_1_1_1_1_1_43_1_1_17_1_406", "X_2_1_1_1_1_1_9_1_1_18_1_406", "X_2_1_1_1_1_1_44_1_1_19_1_406", "X_2_1_1_1_1_1_10_1_1_20_1_406", "X_2_1_1_1_1_1_45_1_1_21_1_406", "X_2_1_1_1_1_1_11_1_1_22_1_406", "X_2_1_1_1_1_1_46_1_1_23_1_406", "X_2_1_1_1_1_1_12_1_1_24_1_406", "X_2_1_1_1_1_1_47_1_1_25_1_406", "X_2_1_1_1_1_1_13_1_1_26_1_406", "X_2_1_1_1_1_1_48_1_1_27_1_406", "X_2_1_1_1_1_1_14_1_1_28_1_406", "X_2_1_1_1_1_1_49_1_1_29_1_406", "X_2_1_1_1_1_1_15_1_1_30_1_406", "X_2_1_1_1_1_1_50_1_1_31_1_406", "X_2_1_1_1_1_1_16_1_1_32_1_406", "X_2_1_1_1_1_1_51_1_1_33_1_406", "X_2_1_1_1_1_1_17_1_1_34_1_406", "X_2_1_1_1_1_1_52_1_1_35_1_406", "X_2_1_1_1_1_1_18_1_1_36_1_406", "X_2_1_1_1_1_1_53_1_1_37_1_406", "X_2_1_1_1_1_1_19_1_1_38_1_406", "X_2_1_1_1_1_1_54_1_1_39_1_406", "X_2_1_1_1_1_1_20_1_1_40_1_406", "X_2_1_1_1_1_1_55_1_1_41_1_406", "X_2_1_1_1_1_1_21_1_1_42_1_406", "X_2_1_1_1_1_1_56_1_1_43_1_406", "X_2_1_1_1_1_1_22_1_1_44_1_406", "X_2_1_1_1_1_1_57_1_1_45_1_406", "X_2_1_1_1_1_1_23_1_1_46_1_406", "X_2_1_1_1_1_1_58_1_1_47_1_406", "X_2_1_1_1_1_1_24_1_1_48_1_406", "X_2_1_1_1_1_1_59_1_1_49_1_406", "X_2_1_1_1_1_1_25_1_1_50_1_406", "X_2_1_1_1_1_1_60_1_1_51_1_406", "X_2_1_1_1_1_1_26_1_1_52_1_406", "X_2_1_1_1_1_1_61_1_1_53_1_406", "X_2_1_1_1_1_1_27_1_1_54_1_406", "X_2_1_1_1_1_1_62_1_1_55_1_406", "X_2_1_1_1_1_1_28_1_1_56_1_406", "X_2_1_1_1_1_1_63_1_1_57_1_406", "X_2_1_1_1_1_1_29_1_1_58_1_406", "X_2_1_1_1_1_1_64_1_1_59_1_406", "X_2_1_1_1_1_1_30_1_1_60_1_406", "X_2_1_1_1_1_1_65_1_1_61_1_406", "X_2_1_1_1_1_1_31_1_1_62_1_406", "X_2_1_1_1_1_1_66_1_1_63_1_406", "X_2_1_1_1_1_1_32_1_1_64_1_406", "X_2_1_1_1_1_1_67_1_1_65_1_406", "X_2_1_1_1_1_1_33_1_1_66_1_406", "X_2_1_1_1_1_1_68_1_1_67_1_406", "X_2_1_1_1_1_1_34_1_1_68_1_406"], "CsaImage.ProtocolSliceNumber": [0, 1, 2, 3, 4, 5, 6, 7, 8, 9, 10, 11, 12, 13, 14, 15, 16, 17, 18, 19, 20, 21, 22, 23, 24, 25, 26, 27, 28, 29, 30, 31, 32, 33, 34, 35, 36, 37, 38, 39, 40, 41, 42, 43, 44, 45, 46, 47, 48, 49, 50, 51, 52, 53, 54, 55, 56, 57, 58, 59, 60, 61, 62, 63, 64, 65, 66, 67], "CsaImage.RFSWDDataType": ["predicted", "predicted", "predicted", "predicted", "predicted", "predicted", "measured", "predicted", "measured", "predicted", "measured", "predicted", "measured", "predicted", "measured", "predicted", "measured", "predicted", "measured", "predicted", "measured", "predicted", "measured", "predicted", "measured", "predicted", "measured", "predicted", "measured", "predicted", "measured", "predicted", "measured", "predicted", "measured", "predicted", "measured", "predicted", "measured", "predicted", "measured", "predicted", "measured", "predicted", "measured", "predicted", "measured", "predicted", "measured", "predicted", "measured", "predicted", "measured", "predicted", "measured", "predicted", "measured", "predicted", "measured", "predicted", "measured", "predicted", "measured", "predicted", "measured", "predicted", "measured", "predicted"], "CsaImage.SlicePosition_PCS": [[-124.10723701, -119.14604995, 20.09677104], [-124.10723701, -118.06020591, 22.23708515], [-124.10723701, -116.97436377, 24.37739925], [-124.10723701, -115.88851973, 26.51771335], [-124.10723701, -114.80267665, 28.65802745], [-124.10723701, -113.71683356, 30.79834156], [-124.10723701, -112.63099048, 32.93865566], [-124.10723701, -111.54514644, 35.07896976], [-124.10723701, -110.45930335, 37.21928386], [-124.10723701, -109.37346026, 39.35959796], [-124.10723701, -108.28761718, 41.49991207], [-124.10723701, -107.20177361, 43.64022617], [-124.10723701, -106.11593005, 45.78053979], [-124.10723701, -105.03008696, 47.92085413], [-124.10723701, -103.94424388, 50.06116815], [-124.10723701, -102.85840032, 52.20148222], [-124.10723701, -101.77255699, 54.3417962], [-124.10723701, -100.68671379, 56.4821103], [-124.10723701, -99.60087045, 58.62242488], [-124.10723701, -98.51502714, 60.76273899], [-124.10723701, -97.42918393, 62.90305213], [-124.10723701, -96.34334061, 65.04336624], [-124.10723701, -95.25749728, 67.18368129], [-124.10723701, -94.17165372, 69.32399539], [-124.10723701, -93.08581063, 71.4643095], [-124.10723701, -91.99996755, 73.6046236], [-124.10723701, -90.91412398, 75.7449377], [-124.10723701, -89.8282809, 77.8852518], [-124.10723701, -88.74243781, 80.02556591], [-124.10723701, -87.65659377, 82.16588001], [-124.10723701, -86.57075068, 84.3061922], [-124.10723701, -85.4849076, 86.44650821], [-124.10723701, -84.39906451, 88.58682041], [-124.10723701, -83.31322143, 90.72713642], [-124.10723701, -82.22737739, 92.86744861], [-124.10723701, -81.14153525, 95.00776462], [-124.10723701, -80.05569121, 97.14807682], [-124.10723701, -78.96984717, 99.28839283], [-124.10723701, -77.88400504, 101.42870502], [-124.10723701, -76.798161, 103.56902103], [-124.10723701, -75.71231696, 105.70933322], [-124.10723701, -74.62647483, 107.84964923], [-124.10723701, -73.54063079, 109.98996143], [-124.10723701, -72.45478866, 112.13027744], [-124.10723701, -71.36894462, 114.27058963], [-124.10723701, -70.28310058, 116.41090183], [-124.10723701, -69.19725844, 118.55122165], [-124.10723701, -68.1114144, 120.69153385], [-124.10723701, -67.02557227, 122.83184604], [-124.10723701, -65.93972632, 124.97215824], [-124.10723701, -64.85388419, 127.11247806], [-124.10723701, -63.76804206, 129.25279026], [-124.10723701, -62.68219993, 131.39310245], [-124.10723701, -61.59635398, 133.53341465], [-124.10723701, -60.51051185, 135.67373447], [-124.10723701, -59.42466971, 137.81404666], [-124.10723701, -58.33882377, 139.95435886], [-124.10723701, -57.25298163, 142.09467105], [-124.10723701, -56.1671395, 144.23499088], [-124.10723701, -55.08129355, 146.37530307], [-124.10723701, -53.99545142, 148.51561527], [-124.10723701, -52.90960929, 150.65592746], [-124.10723701, -51.82376334, 152.79624729], [-124.10723701, -50.73792121, 154.93655948], [-124.10723701, -49.65207908, 157.07687168], [-124.10723701, -48.56623694, 159.21718387], [-124.10723701, -47.480391, 161.3575037], [-124.10723701, -46.39454886, 163.49781589]], "CsaImage.TimeAfterStart": [1.1, 0.7325, 1.11, 0.745, 1.12, 0.755, 1.1325, 0.765, 1.1425, 0.7775, 1.1525, 0.7875, 1.1625, 0.7975, 1.175, 0.81, 1.185, 0.82, 1.195, 0.83, 1.2075, 0.84, 1.2175, 0.8525, 1.2275, 0.8625, 1.24, 0.8725, 1.25, 0.885, 1.26, 0.895, 1.27, 0.905, 1.2825, 0.9175, 1.2925, 0.9275, 1.3025, 0.9375, 1.315, 0.9475, 1.325, 0.96, 1.335, 0.97, 1.3475, 0.98, 1.3575, 0.9925, 1.3675, 1.0025, 1.3775, 1.0125, 1.39, 1.025, 1.4, 1.035, 1.41, 1.045, 1.4225, 1.055, 1.4325, 1.0675, 1.4425, 1.0775, 1.455, 1.0875], "ImagePositionPatient": [[-124.10723700708, -119.14604994704, 20.096771044855], [-124.10723700708, -118.06020590713, 22.237085147028], [-124.10723700708, -116.97436377456, 24.377399249201], [-124.10723700708, -115.88851973464, 26.517713351373], [-124.10723700708, -114.8026766484, 28.658027453546], [-124.10723700708, -113.71683356215, 30.798341555719], [-124.10723700708, -112.63099047591, 32.938655657892], [-124.10723700708, -111.54514643599, 35.078969760065], [-124.10723700708, -110.45930334975, 37.219283862238], [-124.10723700708, -109.37346026351, 39.359597964411], [-124.10723700708, -108.28761717727, 41.499912066583], [-124.10723700708, -107.20177361419, 43.640226168756], [-124.10723700708, -106.11593005111, 45.780539794092], [-124.10723700708, -105.03008696486, 47.920854134683], [-124.10723700708, -103.94424387862, 50.061168147449], [-124.10723700708, -102.85840031554, 52.20148221982], [-124.10723700708, -101.77255699088, 54.341796202783], [-124.10723700708, -100.68671378543, 56.482110304956], [-124.10723700708, -99.600870445866, 58.622424883966], [-124.10723700708, -98.515027136106, 60.762738986139], [-124.10723700708, -97.429183930654, 62.903052134638], [-124.10723700708, -96.343340605993, 65.04336623681], [-124.10723700708, -95.257497281332, 67.183681292658], [-124.10723700708, -94.171653718252, 69.32399539483], [-124.10723700708, -93.085810632009, 71.464309497003], [-124.10723700708, -91.999967545766, 73.604623599176], [-124.10723700708, -90.914123982687, 75.744937701349], [-124.10723700708, -89.828280896444, 77.885251803522], [-124.10723700708, -88.742437810201, 80.025565905695], [-124.10723700708, -87.656593770284, 82.165880007868], [-124.10723700708, -86.570750684042, 84.306192202692], [-124.10723700708, -85.484907597799, 86.446508212213], [-124.10723700708, -84.399064511556, 88.586820407038], [-124.10723700708, -83.313221425314, 90.727136416559], [-124.10723700708, -82.227377385397, 92.867448611383], [-124.10723700708, -81.141535252828, 95.007764620905], [-124.10723700708, -80.055691212911, 97.148076815729], [-124.10723700708, -78.969847172994, 99.28839282525], [-124.10723700708, -77.884005040426, 101.42870502007], [-124.10723700708, -76.798161000509, 103.5690210296], [-124.10723700708, -75.712316960592, 105.70933322442], [-124.10723700708, -74.626474828023, 107.84964923394], [-124.10723700708, -73.540630788106, 109.98996142877], [-124.10723700708, -72.454788655538, 112.13027743829], [-124.10723700708, -71.368944615621, 114.27058963311], [-124.10723700708, -70.283100575704, 116.41090182794], [-124.10723700708, -69.197258443136, 118.55122165215], [-124.10723700708, -68.111414403219, 120.69153384698], [-124.10723700708, -67.02557227065, 122.8318460418], [-124.10723700708, -65.939726323385, 124.97215823663], [-124.10723700708, -64.853884190816, 127.11247806085], [-124.10723700708, -63.768042058248, 129.25279025567], [-124.10723700708, -62.68219992568, 131.39310245049], [-124.10723700708, -61.596353978414, 133.53341464532], [-124.10723700708, -60.510511845846, 135.67373446954], [-124.10723700708, -59.424669713277, 137.81404666436], [-124.10723700708, -58.338823766012, 139.95435885919], [-124.10723700708, -57.252981633443, 142.09467105401], [-124.10723700708, -56.167139500875, 144.23499087823], [-124.10723700708, -55.081293553609, 146.37530307305], [-124.10723700708, -53.995451421041, 148.51561526788], [-124.10723700708, -52.909609288473, 150.6559274627], [-124.10723700708, -51.823763341207, 152.79624728692], [-124.10723700708, -50.737921208639, 154.93655948174], [-124.10723700708, -49.65207907607, 157.07687167657], [-124.10723700708, -48.566236943502, 159.21718387139], [-124.10723700708, -47.480390996236, 161.35750369561], [-124.10723700708, -46.394548863668, 163.49781589044]], "InstanceCreationTime": ["172124.265000", "172124.187000", "172124.265000", "172124.203000", "172124.265000", "172124.203000", "172124.265000", "172124.203000", "172124.265000", "172124.203000", "172124.265000", "172124.203000", "172124.281000", "172124.203000", "172124.281000", "172124.203000", "172124.281000", "172124.203000", "172124.281000", "172124.218000", "172124.281000", "172124.218000", "172124.281000", "172124.218000", "172124.281000", "172124.218000", "172124.281000", "172124.218000", "172124.296000", "172124.218000", "172124.296000", "172124.218000", "172124.296000", "172124.234000", "172124.296000", "172124.234000", "172124.296000", "172124.234000", "172124.296000", "172124.234000", "172124.312000", "172124.234000", "172124.312000", "172124.234000", "172124.312000", "172124.234000", "172124.312000", "172124.234000", "172124.312000", "172124.250000", "172124.312000", "172124.250000", "172124.312000", "172124.250000", "172124.312000", "172124.250000", "172124.328000", "172124.250000", "172124.515000", "172124.250000", "172124.515000", "172124.250000", "172124.515000", "172124.250000", "172124.515000", "172124.250000", "172124.562000", "172124.265000"], "InstanceNumber": [1, 2, 3, 4, 5, 6, 7, 8, 9, 10, 11, 12, 13, 14, 15, 16, 17, 18, 19, 20, 21, 22, 23, 24, 25, 26, 27, 28, 29, 30, 31, 32, 33, 34, 35, 36, 37, 38, 39, 40, 41, 42, 43, 44, 45, 46, 47, 48, 49, 50, 51, 52, 53, 54, 55, 56, 57, 58, 59, 60, 61, 62, 63, 64, 65, 66, 67, 68], "LargestImagePixelValue": [4094, 4094, 4094, 4093, 4094, 4093, 4092, 4094, 4094, 4092, 4093, 4094, 4093, 4091, 4094, 4092, 4093, 4093, 4094, 4092, 4094, 4094, 4094, 4093, 4094, 4091, 4092, 4092, 4093, 4093, 4088, 4092, 4093, 4091, 4093, 4094, 4091, 4093, 4092, 4089, 4086, 4094, 4092, 4092, 4094, 4094, 4094, 4090, 4094, 4093, 4094, 4092, 4093, 4092, 4092, 4094, 4094, 4092, 4093, 4094, 4092, 4094, 4094, 4093, 4094, 4094, 4091, 4094], "SliceLocation": [-35.983558777726, -33.583558416272, -31.183558917768, -28.783558556313, -26.383558626333, -23.983558696354, -21.583558766375, -19.18355840492, -16.783558474941, -14.383558544961, -11.983558614982, -9.5835584692649, -7.18355874879, -4.7835586061895, -2.3835587559431, 0.01644136319631, 2.416441294734, 4.8164412786478, 7.21644174848, 9.6164417795864, 12.016440913016, 14.416440950864, 16.816441839197, 19.216441984914, 21.616441914893, 24.016441844872, 26.416441990589, 28.816441920569, 31.216441850548, 33.616442212003, 36.016440441013, 38.416442071962, 40.816440300972, 43.21644193192, 45.616440592406, 48.016441791879, 50.416440452365, 52.816442514788, 55.216440312324, 57.616442374747, 60.016441035233, 62.416442234706, 64.816440895192, 67.216442094665, 69.616440755151, 72.016439415636, 74.416444017047, 76.816442677533, 79.216440475068, 81.616439998505, 84.016444599915, 86.41644239745, 88.816440194986, 91.216439718422, 93.616444319833, 96.016442117368, 98.416441640804, 100.81643943834, 103.21644403975, 105.61644356319, 108.01644136072, 110.41643915826, 112.81644548557, 115.2164432831, 117.61644108064, 120.01643887817, 122.41644520549, 124.81644300302], "SmallestImagePixelValue": [0, 0, 2, 0, 0, 1, 0, 0, 1, 1, 1, 1, 0, 1, 1, 1, 0, 1, 1, 1, 0, 0, 1, 1, 1, 3, 1, 0, 1, 2, 0, 2, 3, 1, 0, 0, 4, 6, 0, 2, 5, 0, 2, 0, 1, 2, 0, 1, 0, 2, 1, 0, 0, 0, 2, 2, 3, 1, 1, 1, 0, 1, 1, 1, 0, 0, 0, 0], "WindowCenter": [-184.0, -228.0, -226.0, -268.0, -264.0, -346.0, -396.0, -540.0, -604.0, -544.0, -450.0, -462.0, -444.0, -490.0, -472.0, -480.0, -492.0, -470.0, -432.0, -454.0, -432.0, -398.0, -414.0, -392.0, -382.0, -388.0, -320.0, -264.0, -244.0, -240.0, -268.0, -268.0, -270.0, -228.0, -166.0, -128.0, -114.0, -126.0, -128.0, -138.0, -136.0, -104.0, -124.0, -116.0, -110.0, -122.0, -152.0, -182.0, -202.0, -222.0, -208.0, -204.0, -222.0, -262.0, -244.0, -294.0, -286.0, -332.0, -320.0, -342.0, -390.0, -400.0, -426.0, -466.0, -456.0, -466.0, -464.0, -436.0], "WindowWidth": [6280.0, 6240.0, 6338.0, 6442.0, 6348.0, 6184.0, 6030.0, 4944.0, 4920.0, 4902.0, 4904.0, 4924.0, 4834.0, 4768.0, 4732.0, 4662.0, 4588.0, 4530.0, 4488.0, 4432.0, 4366.0, 4362.0, 4308.0, 4336.0, 4238.0, 4180.0, 4108.0, 4080.0, 4092.0, 4050.0, 3980.0, 4024.0, 4038.0, 4092.0, 4110.0, 4180.0, 4176.0, 4196.0, 4186.0, 4202.0, 4204.0, 4208.0, 4216.0, 4214.0, 4202.0, 4244.0, 4244.0, 4254.0, 4284.0, 4322.0, 4320.0, 4346.0, 4340.0, 4394.0, 4380.0, 4410.0, 4504.0, 4560.0, 4620.0, 4666.0, 4676.0, 4774.0, 4850.0, 4886.0, 4920.0, 4980.0, 4936.0, 5004.0]}}}