{"AcquisitionMatrixPE": 96, "AcquisitionNumber": 1, "AcquisitionTime": "17:30:0.232500", "BaseResolution": 96, "BodyPartExamined": "BRAIN", "ConsistencyInfo": "N4_VD11D_LATEST_20110129", "ConversionSoftware": "dcm2niix", "ConversionSoftwareVersion": "v1.0.20210317", "DeviceSerialNumber": "45239", "DwellTime": 9.2e-06, "EchoNumber": 2, "EchoTime": 0.00738, "EchoTime1": 0.00492, "EchoTime2": 0.00738, "FlipAngle": 50, "ImageOrientationPatientDICOM": [0.999524, -0.0273859, 0.0141955, 0.0308464, 0.887393, -0.459981], "ImageType": ["ORIGINAL", "PRIMARY", "P", "ND", "PHASE"], "ImagingFrequency": 123.193, "InPlanePhaseEncodingDirectionDICOM": "COL", "InstitutionAddress": "E 24th St. 100,Austin,Southmiddle,US,78712", "InstitutionName": "Univ of Texas at Austin", "InstitutionalDepartmentName": "IRC", "MRAcquisitionType": "2D", "MagneticFieldStrength": 3, "Manufacturer": "Siemens", "ManufacturersModelName": "Skyra", "Modality": "MR", "PartialFourier": 1, "PatientPosition": "HFS", "PercentPhaseFOV": 100, "PercentSampling": 100, "PhaseEncodingDirection": "j-", "PhaseEncodingSteps": 96, "PhaseResolution": 1, "PixelBandwidth": 565, "ProcedureStepDescription": "Poldrack2^self-scanning", "ProtocolName": "gre_field_mapping", "PulseSequenceDetails": "%SiemensSeq%\\gre_field_mapping", "ReceiveCoilActiveElements": "HEA;HEP", "ReceiveCoilName": "Head_32", "ReconMatrixPE": 96, "RepetitionTime": 0.731, "SAR": 0.119376, "ScanningSequence": "GR", "SequenceName": "*fm2d2r", "SequenceVariant": "SP", "SeriesDescription": "gre_field_mapping", "SeriesNumber": 11, "ShimSetting": [-2763, 8062, -15441, 169, -151, 115, 152, -80], "SliceThickness": 2, "SliceTiming": [0.35938, 0, 0.375, 0, 0.375, 0.01562, 0.39062, 0.01562, 0.40625, 0.03125, 0.40625, 0.04688, 0.42188, 0.0625, 0.4375, 0.0625, 0.4375, 0.07812, 0.45312, 0.09375, 0.46875, 0.09375, 0.46875, 0.10938, 0.48438, 0.125, 0.5, 0.125, 0.5, 0.14062, 0.51562, 0.15625, 0.53125, 0.15625, 0.54688, 0.17188, 0.54688, 0.1875, 0.5625, 0.1875, 0.57812, 0.20312, 0.57812, 0.21875, 0.59375, 0.23438, 0.60938, 0.23438, 0.60938, 0.25, 0.625, 0.26562, 0.64062, 0.26562, 0.64062, 0.28125, 0.65625, 0.29688, 0.67188, 0.29688, 0.6875, 0.3125, 0.6875, 0.32812, 0.70312, 0.32812, 0.71875, 0.34375], "SoftwareVersions": "syngo MR D11", "SpacingBetweenSlices": 2.4, "StationName": "AWP45239", "TxRefAmp": 345.849, "dcmmeta_affine": [[-2.39469313621521, 0.07390272617340088, 0.0, 116.46179962158203], [0.06561194360256195, 2.1260454654693604, -1.1044807434082031, -80.6650619506836], [0.034010086208581924, 1.1020373106002808, 2.1307601928710938, -82.99346160888672], [0.0, 0.0, 0.0, 1.0]], "dcmmeta_reorient_transform": [[0.0, -1.0, 0.0, 95.0], [1.0, 0.0, 0.0, 0.0], [0.0, 0.0, -1.0, 67.0], [0.0, 0.0, 0.0, 1.0]], "dcmmeta_shape": [96, 96, 68], "dcmmeta_slice_dim": 2, "dcmmeta_version": 0.6, "global": {"const": {"AcquisitionMatrix": [96, 0, 0, 96], "AcquisitionNumber": 1, "AngioFlag": "N", "BitsAllocated": 16, "BitsStored": 12, "BodyPartExamined": "BRAIN", "Columns": 96, "EchoNumbers": 2, "EchoTime": 7.38, "EchoTrainLength": 0, "FlipAngle": 50.0, "HighBit": 11, "ImageOrientationPatient": [0.99952413789067, -0.0273858565282, 0.01419551464801, 0.03084635754675, 0.88739290384434, -0.4599808000697], "ImageType": ["ORIGINAL", "PRIMARY", "P", "ND"], "ImagedNucleus": "1H", "ImagingFrequency": 123.193388, "InPlanePhaseEncodingDirection": "COL", "MRAcquisitionType": "2D", "MagneticFieldStrength": 3.0, "Manufacturer": "SIEMENS", "ManufacturerModelName": "Skyra", "Modality": "MR", "NumberOfAverages": 1.0, "NumberOfPhaseEncodingSteps": 96, "PercentPhaseFieldOfView": 100.0, "PercentSampling": 100.0, "PerformedProcedureStepStartTime": "165957.890000", "PhotometricInterpretation": "MONOCHROME2", "PixelBandwidth": 565.0, "PixelRepresentation": 0, "PixelSpacing": [2.3958332538605, 2.3958332538605], "ProtocolName": "gre_field_mapping", "RepetitionTime": 731.0, "RescaleIntercept": -4096.0, "RescaleSlope": 2.0, "RescaleType": "US", "Rows": 96, "SAR": 0.11937616295695, "SamplesPerPixel": 1, "ScanningSequence": "GR", "SequenceName": "*fm2d2r", "SequenceVariant": "SP", "SeriesDescription": "gre_field_mapping", "SeriesNumber": 11, "SeriesTime": "173221.343000", "SliceThickness": 2.0, "SoftwareVersions": "syngo MR D11", "SpacingBetweenSlices": 2.4, "SpecificCharacterSet": "ISO_IR 100", "StudyID": "1", "StudyTime": "165957.859000", "TransmitCoilName": "Body", "VariableFlipAngleFlag": "N", "WindowCenterWidthExplanation": "Algo1", "dBdt": 0.0}, "slices": {"AcquisitionTime": ["173000.232500", "172959.867500", "173000.242500", "172959.877500", "173000.252500", "172959.887500", "173000.265000", "172959.897500", "173000.275000", "172959.910000", "173000.285000", "172959.920000", "173000.297500", "172959.930000", "173000.307500", "172959.942500", "173000.317500", "172959.952500", "173000.327500", "172959.962500", "173000.340000", "172959.975000", "173000.350000", "172959.985000", "173000.360000", "172959.995000", "173000.372500", "173000.005000", "173000.382500", "173000.017500", "173000.392500", "173000.027500", "173000.405000", "173000.037500", "173000.415000", "173000.050000", "173000.425000", "173000.060000", "173000.435000", "173000.070000", "173000.447500", "173000.082500", "173000.457500", "173000.092500", "173000.467500", "173000.102500", "173000.480000", "173000.112500", "173000.490000", "173000.125000", "173000.500000", "173000.135000", "173000.512500", "173000.145000", "173000.522500", "173000.157500", "173000.532500", "173000.167500", "173000.542500", "173000.177500", "173000.555000", "173000.190000", "173000.565000", "173000.200000", "173000.575000", "173000.210000", "173000.587500", "173000.220000"], "ContentTime": ["173221.437000", "173221.343000", "173221.453000", "173221.359000", "173221.453000", "173221.359000", "173221.453000", "173221.359000", "173221.453000", "173221.359000", "173221.453000", "173221.359000", "173221.734000", "173221.359000", "173221.734000", "173221.375000", "173221.734000", "173221.375000", "173221.734000", "173221.375000", "173221.734000", "173221.375000", "173221.734000", "173221.375000", "173221.750000", "173221.375000", "173221.750000", "173221.375000", "173221.750000", "173221.390000", "173221.750000", "173221.390000", "173221.750000", "173221.390000", "173221.750000", "173221.390000", "173221.750000", "173221.390000", "173221.750000", "173221.406000", "173221.765000", "173221.406000", "173221.765000", "173221.406000", "173221.765000", "173221.406000", "173221.765000", "173221.406000", "173221.765000", "173221.406000", "173221.765000", "173221.421000", "173221.765000", "173221.421000", "173221.781000", "173221.421000", "173221.781000", "173221.421000", "173221.781000", "173221.437000", "173221.781000", "173221.437000", "173221.781000", "173221.437000", "173221.781000", "173221.437000", "173221.796000", "173221.437000"], "CsaImage.GSWDDataType": ["predicted", "predicted", "predicted", "predicted", "predicted", "predicted", "predicted", "predicted", "predicted", "predicted", "predicted", "predicted", "predicted", "predicted", "predicted", "predicted", "predicted", "predicted", "predicted", "predicted", "predicted", "predicted", "predicted", "predicted", "predicted", "predicted", "measured", "predicted", "measured", "predicted", "measured", "predicted", "measured", "predicted", "measured", "predicted", "measured", "predicted", "measured", "predicted", "measured", "predicted", "measured", "predicted", "measured", "predicted", "measured", "predicted", "measured", "predicted", "measured", "predicted", "measured", "predicted", "measured", "predicted", "measured", "predicted", "measured", "predicted", "measured", "predicted", "measured", "predicted", "measured", "predicted", "measured", "predicted"], "CsaImage.ICE_Dims": ["X_2_1_1_1_1_1_35_1_1_1_1_127", "X_2_1_1_1_1_1_1_1_1_2_1_127", "X_2_1_1_1_1_1_36_1_1_3_1_127", "X_2_1_1_1_1_1_2_1_1_4_1_127", "X_2_1_1_1_1_1_37_1_1_5_1_127", "X_2_1_1_1_1_1_3_1_1_6_1_127", "X_2_1_1_1_1_1_38_1_1_7_1_127", "X_2_1_1_1_1_1_4_1_1_8_1_127", "X_2_1_1_1_1_1_39_1_1_9_1_127", "X_2_1_1_1_1_1_5_1_1_10_1_127", "X_2_1_1_1_1_1_40_1_1_11_1_127", "X_2_1_1_1_1_1_6_1_1_12_1_127", "X_2_1_1_1_1_1_41_1_1_13_1_127", "X_2_1_1_1_1_1_7_1_1_14_1_127", "X_2_1_1_1_1_1_42_1_1_15_1_127", "X_2_1_1_1_1_1_8_1_1_16_1_127", "X_2_1_1_1_1_1_43_1_1_17_1_127", "X_2_1_1_1_1_1_9_1_1_18_1_127", "X_2_1_1_1_1_1_44_1_1_19_1_127", "X_2_1_1_1_1_1_10_1_1_20_1_127", "X_2_1_1_1_1_1_45_1_1_21_1_127", "X_2_1_1_1_1_1_11_1_1_22_1_127", "X_2_1_1_1_1_1_46_1_1_23_1_127", "X_2_1_1_1_1_1_12_1_1_24_1_127", "X_2_1_1_1_1_1_47_1_1_25_1_127", "X_2_1_1_1_1_1_13_1_1_26_1_127", "X_2_1_1_1_1_1_48_1_1_27_1_127", "X_2_1_1_1_1_1_14_1_1_28_1_127", "X_2_1_1_1_1_1_49_1_1_29_1_127", "X_2_1_1_1_1_1_15_1_1_30_1_127", "X_2_1_1_1_1_1_50_1_1_31_1_127", "X_2_1_1_1_1_1_16_1_1_32_1_127", "X_2_1_1_1_1_1_51_1_1_33_1_127", "X_2_1_1_1_1_1_17_1_1_34_1_127", "X_2_1_1_1_1_1_52_1_1_35_1_127", "X_2_1_1_1_1_1_18_1_1_36_1_127", "X_2_1_1_1_1_1_53_1_1_37_1_127", "X_2_1_1_1_1_1_19_1_1_38_1_127", "X_2_1_1_1_1_1_54_1_1_39_1_127", "X_2_1_1_1_1_1_20_1_1_40_1_127", "X_2_1_1_1_1_1_55_1_1_41_1_127", "X_2_1_1_1_1_1_21_1_1_42_1_127", "X_2_1_1_1_1_1_56_1_1_43_1_127", "X_2_1_1_1_1_1_22_1_1_44_1_127", "X_2_1_1_1_1_1_57_1_1_45_1_127", "X_2_1_1_1_1_1_23_1_1_46_1_127", "X_2_1_1_1_1_1_58_1_1_47_1_127", "X_2_1_1_1_1_1_24_1_1_48_1_127", "X_2_1_1_1_1_1_59_1_1_49_1_127", "X_2_1_1_1_1_1_25_1_1_50_1_127", "X_2_1_1_1_1_1_60_1_1_51_1_127", "X_2_1_1_1_1_1_26_1_1_52_1_127", "X_2_1_1_1_1_1_61_1_1_53_1_127", "X_2_1_1_1_1_1_27_1_1_54_1_127", "X_2_1_1_1_1_1_62_1_1_55_1_127", "X_2_1_1_1_1_1_28_1_1_56_1_127", "X_2_1_1_1_1_1_63_1_1_57_1_127", "X_2_1_1_1_1_1_29_1_1_58_1_127", "X_2_1_1_1_1_1_64_1_1_59_1_127", "X_2_1_1_1_1_1_30_1_1_60_1_127", "X_2_1_1_1_1_1_65_1_1_61_1_127", "X_2_1_1_1_1_1_31_1_1_62_1_127", "X_2_1_1_1_1_1_66_1_1_63_1_127", "X_2_1_1_1_1_1_32_1_1_64_1_127", "X_2_1_1_1_1_1_67_1_1_65_1_127", "X_2_1_1_1_1_1_33_1_1_66_1_127", "X_2_1_1_1_1_1_68_1_1_67_1_127", "X_2_1_1_1_1_1_34_1_1_68_1_127"], "CsaImage.ProtocolSliceNumber": [0, 1, 2, 3, 4, 5, 6, 7, 8, 9, 10, 11, 12, 13, 14, 15, 16, 17, 18, 19, 20, 21, 22, 23, 24, 25, 26, 27, 28, 29, 30, 31, 32, 33, 34, 35, 36, 37, 38, 39, 40, 41, 42, 43, 44, 45, 46, 47, 48, 49, 50, 51, 52, 53, 54, 55, 56, 57, 58, 59, 60, 61, 62, 63, 64, 65, 66, 67], "CsaImage.RFSWDDataType": ["predicted", "predicted", "predicted", "predicted", "predicted", "predicted", "predicted", "predicted", "predicted", "predicted", "predicted", "predicted", "predicted", "predicted", "predicted", "predicted", "predicted", "predicted", "predicted", "predicted", "predicted", "predicted", "predicted", "predicted", "measured", "predicted", "measured", "predicted", "measured", "predicted", "measured", "predicted", "measured", "predicted", "measured", "predicted", "measured", "predicted", "measured", "predicted", "measured", "predicted", "measured", "predicted", "measured", "predicted", "measured", "predicted", "measured", "predicted", "measured", "predicted", "measured", "predicted", "measured", "predicted", "measured", "predicted", "measured", "predicted", "measured", "predicted", "measured", "predicted", "measured", "predicted", "measured", "predicted"], "CsaImage.SlicePosition_PCS": [[-123.48256085, -121.3091705, 21.70030177], [-123.48256085, -120.20468976, 23.83105815], [-123.48256085, -119.10021092, 25.96181453], [-123.48256085, -117.99573209, 28.09257282], [-123.48256085, -116.89125134, 30.22332919], [-123.48256085, -115.78677251, 32.35408557], [-123.48256085, -114.68229272, 34.48484386], [-123.48256085, -113.57781293, 36.61560024], [-123.48256085, -112.47333409, 38.74635661], [-123.48256085, -111.3688543, 40.87711395], [-123.48256085, -110.26437451, 43.00787128], [-123.48256085, -109.15989568, 45.13862766], [-123.48256085, -108.05541589, 47.26938475], [-123.48256085, -106.9509361, 49.4001416], [-123.48256085, -105.84645678, 51.53089855], [-123.48256085, -104.74197747, 53.66165555], [-123.48256085, -103.63749768, 55.79241241], [-123.48256085, -102.53301837, 57.92316926], [-123.48256085, -101.42853882, 60.05392612], [-123.48256085, -100.32405939, 62.18468345], [-123.48256085, -99.21957992, 64.31543983], [-123.48256085, -98.11510046, 66.44619716], [-123.48256085, -97.01062097, 68.57695354], [-123.48256085, -95.90614154, 70.70770992], [-123.48256085, -94.80166223, 72.8384682], [-123.48256085, -93.69718244, 74.96922458], [-123.48256085, -92.59270312, 77.09998096], [-123.48256085, -91.48822333, 79.23073924], [-123.48256085, -90.38374402, 81.36149562], [-123.48256085, -89.27926423, 83.49225391], [-123.48256085, -88.17478539, 85.62301029], [-123.48256085, -87.0703056, 87.75376666], [-123.48256085, -85.96582581, 89.88452304], [-123.48256085, -84.86134698, 92.01527942], [-123.48256085, -83.75686719, 94.1460358], [-123.48256085, -82.65238835, 96.27679218], [-123.48256085, -81.54790761, 98.40755237], [-123.48256085, -80.44342877, 100.53830875], [-123.48256085, -79.33894994, 102.66906513], [-123.48256085, -78.23446919, 104.7998215], [-123.48256085, -77.12999036, 106.93057788], [-123.48256085, -76.02551152, 109.06133426], [-123.48256085, -74.92103078, 111.19209064], [-123.48256085, -73.81655194, 113.32285083], [-123.48256085, -72.71207311, 115.45360721], [-123.48256085, -71.60759236, 117.58435977], [-123.48256085, -70.50311353, 119.71511997], [-123.48256085, -69.39863469, 121.84588016], [-123.48256085, -68.29415395, 123.97663272], [-123.48256085, -67.18967511, 126.10739291], [-123.48256085, -66.08519437, 128.23814548], [-123.48256085, -64.98071744, 130.36890567], [-123.48256085, -63.8762367, 132.49965823], [-123.48256085, -62.77175595, 134.63041843], [-123.48256085, -61.66727902, 136.76117862], [-123.48256085, -60.56279828, 138.89193118], [-123.48256085, -59.45831754, 141.02269138], [-123.48256085, -58.35384061, 143.15344394], [-123.48256085, -57.24935986, 145.28420413], [-123.48256085, -56.14487912, 147.4149567], [-123.48256085, -55.04040219, 149.54571689], [-123.48256085, -53.93592145, 151.67647708], [-123.48256085, -52.83144071, 153.80722965], [-123.48256085, -51.72696378, 155.93798984], [-123.48256085, -50.62248303, 158.0687424], [-123.48256085, -49.51800229, 160.1995026], [-123.48256085, -48.41352536, 162.33025516], [-123.48256085, -47.30904462, 164.46101535]], "CsaImage.TimeAfterStart": [1.0975, 0.7325, 1.1075, 0.7425, 1.12, 0.755, 1.13, 0.765, 1.14, 0.775, 1.1525, 0.785, 1.1625, 0.7975, 1.1725, 0.8075, 1.185, 0.8175, 1.195, 0.83, 1.205, 0.84, 1.215, 0.85, 1.2275, 0.8625, 1.2375, 0.8725, 1.2475, 0.8825, 1.26, 0.8925, 1.27, 0.905, 1.28, 0.915, 1.2925, 0.925, 1.3025, 0.9375, 1.3125, 0.9475, 1.3225, 0.9575, 1.335, 0.97, 1.345, 0.98, 1.355, 0.99, 1.3675, 1.0, 1.3775, 1.0125, 1.3875, 1.0225, 1.4, 1.0325, 1.41, 1.045, 1.42, 1.055, 1.43, 1.065, 1.4425, 1.0775, 1.4525, 1.0875], "ImagePositionPatient": [[-123.4825608542, -121.30917050298, 21.700301774208], [-123.4825608542, -120.20468975957, 23.831058152382], [-123.4825608542, -119.10021092351, 25.961814530556], [-123.4825608542, -117.99573208745, 28.092572816078], [-123.4825608542, -116.89125134404, 30.223329194252], [-123.4825608542, -115.78677250798, 32.354085572426], [-123.4825608542, -114.68229271825, 34.484843857948], [-123.4825608542, -113.57781292852, 36.615600236122], [-123.4825608542, -112.47333409246, 38.746356614296], [-123.4825608542, -111.36885430272, 40.877113946144], [-123.4825608542, -110.26437451299, 43.007871277992], [-123.4825608542, -109.15989567693, 45.138627656166], [-123.4825608542, -108.0554158872, 47.269384749596], [-123.4825608542, -106.95093609746, 49.400141604607], [-123.4825608542, -105.84645678456, 51.530898549025], [-123.4825608542, -104.74197747167, 53.661655553047], [-123.4825608542, -103.63749768193, 55.792412408058], [-123.4825608542, -102.53301836904, 57.923169263069], [-123.4825608542, -101.42853881772, 60.05392611808], [-123.4825608542, -100.32405938562, 62.184683449928], [-123.4825608542, -99.219579923707, 64.315439828102], [-123.4825608542, -98.115100461799, 66.44619715995], [-123.4825608542, -97.010620970088, 68.576953538124], [-123.4825608542, -95.906141537982, 70.707709916298], [-123.4825608542, -94.801662225086, 72.83846820182], [-123.4825608542, -93.697182435352, 74.969224579994], [-123.4825608542, -92.592703122455, 77.099980958168], [-123.4825608542, -91.488223332721, 79.23073924369], [-123.4825608542, -90.383744019824, 81.361495621864], [-123.4825608542, -89.279264230091, 83.492253907387], [-123.4825608542, -88.174785394031, 85.623010285561], [-123.4825608542, -87.070305604297, 87.753766663734], [-123.4825608542, -85.965825814563, 89.884523041908], [-123.4825608542, -84.861346978504, 92.015279420082], [-123.4825608542, -83.75686718877, 94.146035798256], [-123.4825608542, -82.65238835271, 96.27679217643], [-123.4825608542, -81.547907609302, 98.407552369301], [-123.4825608542, -80.443428773242, 100.53830874747], [-123.4825608542, -79.338949937183, 102.66906512565], [-123.4825608542, -78.234469193775, 104.79982150382], [-123.4825608542, -77.129990357715, 106.930577882], [-123.4825608542, -76.025511521656, 109.06133426017], [-123.4825608542, -74.921030778247, 111.19209063834], [-123.4825608542, -73.816551942188, 113.32285083121], [-123.4825608542, -72.712073106128, 115.45360720939], [-123.4825608542, -71.60759236272, 117.58435977287], [-123.4825608542, -70.50311352666, 119.71511996574], [-123.4825608542, -69.398634690601, 121.84588015861], [-123.4825608542, -68.294153947193, 123.97663272208], [-123.4825608542, -67.189675111133, 126.10739291496], [-123.4825608542, -66.085194367725, 128.23814547843], [-123.4825608542, -64.980717439014, 130.3689056713], [-123.4825608542, -63.876236695606, 132.49965823478], [-123.4825608542, -62.771755952197, 134.63041842765], [-123.4825608542, -61.667279023487, 136.76117862052], [-123.4825608542, -60.562798280078, 138.891931184], [-123.4825608542, -59.45831753667, 141.02269137687], [-123.4825608542, -58.353840607959, 143.15344394035], [-123.4825608542, -57.249359864551, 145.28420413322], [-123.4825608542, -56.144879121143, 147.41495669669], [-123.4825608542, -55.040402192432, 149.54571688956], [-123.4825608542, -53.935921449024, 151.67647708244], [-123.4825608542, -52.831440705615, 153.80722964591], [-123.4825608542, -51.726963776905, 155.93798983878], [-123.4825608542, -50.622483033496, 158.06874240226], [-123.4825608542, -49.518002290088, 160.19950259513], [-123.4825608542, -48.413525361377, 162.33025515861], [-123.4825608542, -47.309044617969, 164.46101535148]], "InstanceCreationTime": ["173221.437000", "173221.343000", "173221.453000", "173221.359000", "173221.453000", "173221.359000", "173221.453000", "173221.359000", "173221.453000", "173221.359000", "173221.453000", "173221.359000", "173221.734000", "173221.359000", "173221.734000", "173221.375000", "173221.734000", "173221.375000", "173221.734000", "173221.375000", "173221.734000", "173221.375000", "173221.734000", "173221.375000", "173221.750000", "173221.375000", "173221.750000", "173221.375000", "173221.750000", "173221.390000", "173221.750000", "173221.390000", "173221.750000", "173221.390000", "173221.750000", "173221.390000", "173221.750000", "173221.390000", "173221.750000", "173221.406000", "173221.765000", "173221.406000", "173221.765000", "173221.406000", "173221.765000", "173221.406000", "173221.765000", "173221.406000", "173221.765000", "173221.406000", "173221.765000", "173221.421000", "173221.765000", "173221.421000", "173221.781000", "173221.421000", "173221.781000", "173221.421000", "173221.781000", "173221.437000", "173221.781000", "173221.437000", "173221.781000", "173221.437000", "173221.781000", "173221.437000", "173221.796000", "173221.437000"], "InstanceNumber": [1, 2, 3, 4, 5, 6, 7, 8, 9, 10, 11, 12, 13, 14, 15, 16, 17, 18, 19, 20, 21, 22, 23, 24, 25, 26, 27, 28, 29, 30, 31, 32, 33, 34, 35, 36, 37, 38, 39, 40, 41, 42, 43, 44, 45, 46, 47, 48, 49, 50, 51, 52, 53, 54, 55, 56, 57, 58, 59, 60, 61, 62, 63, 64, 65, 66, 67, 68], "LargestImagePixelValue": [4094, 4094, 4091, 4094, 4094, 4092, 4091, 4094, 4094, 4094, 4094, 4094, 4090, 4094, 4094, 4094, 4091, 4093, 4094, 4094, 4093, 4094, 4093, 4094, 4090, 4092, 4094, 4094, 4092, 4094, 4094, 4091, 4089, 4093, 4091, 4090, 4094, 4093, 4089, 4085, 4094, 4090, 4094, 4093, 4089, 4094, 4092, 4094, 4091, 4094, 4094, 4093, 4090, 4094, 4093, 4091, 4094, 4094, 4094, 4093, 4094, 4092, 4094, 4094, 4094, 4094, 4094, 4094], "SliceLocation": [-36.560589611448, -34.160589516514, -31.76059029934, -29.360589388794, -26.960589293859, -24.560590076686, -22.160588727259, -19.760589071205, -17.360589854032, -14.960589351291, -12.56058884855, -10.160589631377, -7.7605893403082, -5.3605892609109, -2.9605893215772, -0.5605893293255, 1.8394107500718, 4.2394106100287, 6.6394105797058, 9.0394109178661, 11.439410423055, 13.83941077493, 16.239410293834, 18.639409785307, 21.039410915294, 23.439410571348, 25.839410007962, 28.239411357389, 30.639410794003, 33.03941214343, 35.439411360603, 37.839411016657, 40.239410672711, 42.639409889884, 45.039409545938, 47.439408763111, 49.839412244793, 52.239411461966, 54.639410679139, 57.039410774074, 59.439409991247, 61.83940920842, 64.239409303355, 66.639411907275, 69.039411124448, 71.439407832636, 73.839410436556, 76.239413040476, 78.639409748663, 81.039412352584, 83.439409060771, 85.83941078693, 88.239407495118, 90.639410976799, 93.039412702958, 95.439409411145, 97.839412892827, 100.23940784549, 102.63941132717, 105.03940803536, 107.43940976152, 109.8394132432, 112.23940995139, 114.63941167755, 117.03940838574, 119.43941186742, 121.83940682008, 124.23941030176], "SmallestImagePixelValue": [1, 1, 0, 2, 0, 0, 0, 0, 0, 4, 0, 0, 0, 0, 2, 2, 4, 0, 2, 1, 7, 2, 5, 1, 4, 0, 0, 0, 6, 1, 2, 0, 0, 0, 0, 2, 1, 4, 3, 1, 4, 0, 1, 2, 0, 0, 2, 1, 2, 2, 2, 0, 1, 0, 0, 6, 0, 0, 3, 0, 0, 0, 1, 0, 0, 0, 0, 0], "WindowCenter": [-146.0, -172.0, -214.0, -256.0, -314.0, -400.0, -598.0, -622.0, -548.0, -570.0, -536.0, -468.0, -506.0, -494.0, -498.0, -462.0, -438.0, -432.0, -472.0, -446.0, -424.0, -366.0, -362.0, -344.0, -378.0, -360.0, -332.0, -300.0, -260.0, -224.0, -246.0, -230.0, -242.0, -230.0, -212.0, -222.0, -164.0, -144.0, -120.0, -136.0, -124.0, -136.0, -132.0, -142.0, -144.0, -152.0, -170.0, -174.0, -194.0, -218.0, -202.0, -198.0, -204.0, -224.0, -250.0, -266.0, -314.0, -306.0, -352.0, -352.0, -390.0, -400.0, -408.0, -428.0, -446.0, -416.0, -488.0, -424.0], "WindowWidth": [6224.0, 6266.0, 6302.0, 6394.0, 6182.0, 5980.0, 4968.0, 4922.0, 4888.0, 4904.0, 4890.0, 4872.0, 4770.0, 4746.0, 4714.0, 4672.0, 4588.0, 4550.0, 4540.0, 4472.0, 4340.0, 4306.0, 4300.0, 4292.0, 4192.0, 4152.0, 4096.0, 4088.0, 4036.0, 4060.0, 4116.0, 4106.0, 4086.0, 4108.0, 4120.0, 4156.0, 4162.0, 4202.0, 4202.0, 4232.0, 4236.0, 4254.0, 4256.0, 4238.0, 4270.0, 4284.0, 4306.0, 4320.0, 4346.0, 4386.0, 4394.0, 4388.0, 4382.0, 4422.0, 4404.0, 4482.0, 4514.0, 4608.0, 4610.0, 4688.0, 4776.0, 4830.0, 4870.0, 4898.0, 4986.0, 4990.0, 5010.0, 5072.0]}}}