{"AcquisitionMatrixPE": 96, "AcquisitionNumber": 1, "AcquisitionTime": "07:36:49.580000", "BaseResolution": 96, "BodyPartExamined": "BRAIN", "ConsistencyInfo": "N4_VD11D_LATEST_20110129", "ConversionSoftware": "dcm2niix", "ConversionSoftwareVersion": "v1.0.20210317", "DeviceSerialNumber": "45239", "DwellTime": 9.2e-06, "EchoNumber": 2, "EchoTime": 0.00738, "EchoTime1": 0.00492, "EchoTime2": 0.00738, "FlipAngle": 50, "ImageOrientationPatientDICOM": [0.999991, -0.00384284, 0.00198343, 0.00432451, 0.888609, -0.458645], "ImageType": ["ORIGINAL", "PRIMARY", "P", "ND", "PHASE"], "ImagingFrequency": 123.193, "InPlanePhaseEncodingDirectionDICOM": "COL", "InstitutionAddress": "E 24th St. 100,Austin,Southmiddle,US,78712", "InstitutionName": "Univ of Texas at Austin", "InstitutionalDepartmentName": "IRC", "MRAcquisitionType": "2D", "MagneticFieldStrength": 3, "Manufacturer": "Siemens", "ManufacturersModelName": "Skyra", "Modality": "MR", "PartialFourier": 1, "PatientPosition": "HFS", "PercentPhaseFOV": 100, "PercentSampling": 100, "PhaseEncodingDirection": "j-", "PhaseEncodingSteps": 96, "PhaseResolution": 1, "PixelBandwidth": 565, "ProcedureStepDescription": "Poldrack2^self-scanning", "ProtocolName": "gre_field_mapping", "PulseSequenceDetails": "%SiemensSeq%\\gre_field_mapping", "ReceiveCoilActiveElements": "HEA;HEP", "ReceiveCoilName": "Head_32", "ReconMatrixPE": 96, "RepetitionTime": 0.731, "SAR": 0.104432, "ScanningSequence": "GR", "SequenceName": "*fm2d2r", "SequenceVariant": "SP", "SeriesDescription": "gre_field_mapping", "SeriesNumber": 11, "ShimSetting": [-2801, 8049, -15448, 206, -317, 172, 256, -70], "SliceThickness": 2, "SliceTiming": [0.35938, 0, 0.375, 0.00781, 0.38281, 0.01562, 0.39062, 0.03125, 0.40625, 0.03906, 0.41406, 0.04688, 0.42969, 0.0625, 0.4375, 0.07031, 0.44531, 0.07812, 0.46094, 0.09375, 0.46875, 0.10156, 0.47656, 0.11719, 0.49219, 0.125, 0.5, 0.13281, 0.50781, 0.14844, 0.52344, 0.15625, 0.53125, 0.17188, 0.54688, 0.17969, 0.55469, 0.1875, 0.5625, 0.20312, 0.57812, 0.21094, 0.58594, 0.21875, 0.60156, 0.23438, 0.60938, 0.24219, 0.61719, 0.25, 0.63281, 0.26562, 0.64062, 0.27344, 0.64844, 0.28906, 0.66406, 0.29688, 0.67188, 0.3125, 0.6875, 0.32031, 0.69531, 0.32812, 0.70312, 0.33594, 0.71875, 0.35156], "SoftwareVersions": "syngo MR D11", "SpacingBetweenSlices": 2.4, "StationName": "AWP45239", "TxRefAmp": 327.411, "dcmmeta_affine": [[-2.395810842514038, 0.010360809043049812, 0.0, 118.82677459716797], [0.009206795133650303, 2.1289587020874023, -1.1007575988769531, -78.45772552490234], [0.004751977976411581, 1.0988376140594482, 2.1326828002929688, -95.21426391601562], [0.0, 0.0, 0.0, 1.0]], "dcmmeta_reorient_transform": [[0.0, -1.0, 0.0, 95.0], [1.0, 0.0, 0.0, 0.0], [0.0, 0.0, -1.0, 67.0], [0.0, 0.0, 0.0, 1.0]], "dcmmeta_shape": [96, 96, 68], "dcmmeta_slice_dim": 2, "dcmmeta_version": 0.6, "global": {"const": {"AcquisitionMatrix": [96, 0, 0, 96], "AcquisitionNumber": 1, "AngioFlag": "N", "BitsAllocated": 16, "BitsStored": 12, "BodyPartExamined": "BRAIN", "Columns": 96, "EchoNumbers": 2, "EchoTime": 7.38, "EchoTrainLength": 0, "FlipAngle": 50.0, "HighBit": 11, "ImageOrientationPatient": [0.99999064925499, -0.0038428362595, 0.00198343441132, 0.0043245118316, 0.88860892568291, -0.4586452613885], "ImageType": ["ORIGINAL", "PRIMARY", "P", "ND"], "ImagedNucleus": "1H", "ImagingFrequency": 123.193252, "InPlanePhaseEncodingDirection": "COL", "MRAcquisitionType": "2D", "MagneticFieldStrength": 3.0, "Manufacturer": "SIEMENS", "ManufacturerModelName": "Skyra", "Modality": "MR", "NumberOfAverages": 1.0, "NumberOfPhaseEncodingSteps": 96, "PercentPhaseFieldOfView": 100.0, "PercentSampling": 100.0, "PerformedProcedureStepStartTime": "070857.171000", "PhotometricInterpretation": "MONOCHROME2", "PixelBandwidth": 565.0, "PixelRepresentation": 0, "PixelSpacing": [2.3958332538605, 2.3958332538605], "ProtocolName": "gre_field_mapping", "RepetitionTime": 731.0, "RescaleIntercept": -4096.0, "RescaleSlope": 2.0, "RescaleType": "US", "Rows": 96, "SAR": 0.10443174453871, "SamplesPerPixel": 1, "ScanningSequence": "GR", "SequenceName": "*fm2d2r", "SequenceVariant": "SP", "SeriesDescription": "gre_field_mapping", "SeriesNumber": 11, "SeriesTime": "073910.828000", "SliceThickness": 2.0, "SoftwareVersions": "syngo MR D11", "SpacingBetweenSlices": 2.4, "SpecificCharacterSet": "ISO_IR 100", "StudyID": "1", "StudyTime": "070857.125000", "TransmitCoilName": "Body", "VariableFlipAngleFlag": "N", "WindowCenterWidthExplanation": "Algo1", "dBdt": 0.0}, "slices": {"AcquisitionTime": ["073649.580000", "073649.215000", "073649.590000", "073649.225000", "073649.602500", "073649.235000", "073649.612500", "073649.247500", "073649.622500", "073649.257500", "073649.635000", "073649.267500", "073649.645000", "073649.280000", "073649.655000", "073649.290000", "073649.665000", "073649.300000", "073649.677500", "073649.312500", "073649.687500", "073649.322500", "073649.697500", "073649.332500", "073649.710000", "073649.342500", "073649.720000", "073649.355000", "073649.730000", "073649.365000", "073649.742500", "073649.375000", "073649.752500", "073649.387500", "073649.762500", "073649.397500", "073649.772500", "073649.407500", "073649.785000", "073649.420000", "073649.795000", "073649.430000", "073649.805000", "073649.440000", "073649.817500", "073649.450000", "073649.827500", "073649.462500", "073649.837500", "073649.472500", "073649.850000", "073649.482500", "073649.860000", "073649.495000", "073649.870000", "073649.505000", "073649.880000", "073649.515000", "073649.892500", "073649.527500", "073649.902500", "073649.537500", "073649.912500", "073649.547500", "073649.925000", "073649.557500", "073649.935000", "073649.570000"], "ContentTime": ["073911.156000", "073910.843000", "073911.156000", "073910.875000", "073911.156000", "073910.875000", "073911.156000", "073910.875000", "073911.156000", "073911.031000", "073911.156000", "073911.031000", "073911.171000", "073911.031000", "073911.171000", "073911.046000", "073911.171000", "073911.046000", "073911.171000", "073911.078000", "073911.171000", "073911.078000", "073911.171000", "073911.078000", "073911.171000", "073911.078000", "073911.171000", "073911.078000", "073911.187000", "073911.093000", "073911.187000", "073911.093000", "073911.187000", "073911.093000", "073911.187000", "073911.125000", "073911.187000", "073911.125000", "073911.187000", "073911.125000", "073911.187000", "073911.125000", "073911.187000", "073911.125000", "073911.203000", "073911.125000", "073911.203000", "073911.125000", "073911.203000", "073911.140000", "073911.203000", "073911.140000", "073911.203000", "073911.140000", "073911.203000", "073911.140000", "073911.203000", "073911.140000", "073911.218000", "073911.140000", "073911.218000", "073911.140000", "073911.218000", "073911.140000", "073911.218000", "073911.156000", "073911.218000", "073911.156000"], "CsaImage.GSWDDataType": ["predicted", "predicted", "predicted", "predicted", "predicted", "predicted", "predicted", "predicted", "predicted", "predicted", "predicted", "predicted", "predicted", "predicted", "predicted", "predicted", "predicted", "predicted", "predicted", "predicted", "predicted", "predicted", "predicted", "predicted", "predicted", "predicted", "predicted", "predicted", "predicted", "predicted", "measured", "predicted", "measured", "predicted", "measured", "predicted", "measured", "predicted", "measured", "predicted", "measured", "predicted", "measured", "predicted", "measured", "predicted", "measured", "predicted", "measured", "predicted", "measured", "predicted", "measured", "predicted", "measured", "predicted", "measured", "predicted", "measured", "predicted", "measured", "predicted", "measured", "predicted", "measured", "predicted", "measured", "predicted"], "CsaImage.ICE_Dims": ["X_2_1_1_1_1_1_35_1_1_1_1_426", "X_2_1_1_1_1_1_1_1_1_2_1_426", "X_2_1_1_1_1_1_36_1_1_3_1_426", "X_2_1_1_1_1_1_2_1_1_4_1_426", "X_2_1_1_1_1_1_37_1_1_5_1_426", "X_2_1_1_1_1_1_3_1_1_6_1_426", "X_2_1_1_1_1_1_38_1_1_7_1_426", "X_2_1_1_1_1_1_4_1_1_8_1_426", "X_2_1_1_1_1_1_39_1_1_9_1_426", "X_2_1_1_1_1_1_5_1_1_10_1_426", "X_2_1_1_1_1_1_40_1_1_11_1_426", "X_2_1_1_1_1_1_6_1_1_12_1_426", "X_2_1_1_1_1_1_41_1_1_13_1_426", "X_2_1_1_1_1_1_7_1_1_14_1_426", "X_2_1_1_1_1_1_42_1_1_15_1_426", "X_2_1_1_1_1_1_8_1_1_16_1_426", "X_2_1_1_1_1_1_43_1_1_17_1_426", "X_2_1_1_1_1_1_9_1_1_18_1_426", "X_2_1_1_1_1_1_44_1_1_19_1_426", "X_2_1_1_1_1_1_10_1_1_20_1_426", "X_2_1_1_1_1_1_45_1_1_21_1_426", "X_2_1_1_1_1_1_11_1_1_22_1_426", "X_2_1_1_1_1_1_46_1_1_23_1_426", "X_2_1_1_1_1_1_12_1_1_24_1_426", "X_2_1_1_1_1_1_47_1_1_25_1_426", "X_2_1_1_1_1_1_13_1_1_26_1_426", "X_2_1_1_1_1_1_48_1_1_27_1_426", "X_2_1_1_1_1_1_14_1_1_28_1_426", "X_2_1_1_1_1_1_49_1_1_29_1_426", "X_2_1_1_1_1_1_15_1_1_30_1_426", "X_2_1_1_1_1_1_50_1_1_31_1_426", "X_2_1_1_1_1_1_16_1_1_32_1_426", "X_2_1_1_1_1_1_51_1_1_33_1_426", "X_2_1_1_1_1_1_17_1_1_34_1_426", "X_2_1_1_1_1_1_52_1_1_35_1_426", "X_2_1_1_1_1_1_18_1_1_36_1_426", "X_2_1_1_1_1_1_53_1_1_37_1_426", "X_2_1_1_1_1_1_19_1_1_38_1_426", "X_2_1_1_1_1_1_54_1_1_39_1_426", "X_2_1_1_1_1_1_20_1_1_40_1_426", "X_2_1_1_1_1_1_55_1_1_41_1_426", "X_2_1_1_1_1_1_21_1_1_42_1_426", "X_2_1_1_1_1_1_56_1_1_43_1_426", "X_2_1_1_1_1_1_22_1_1_44_1_426", "X_2_1_1_1_1_1_57_1_1_45_1_426", "X_2_1_1_1_1_1_23_1_1_46_1_426", "X_2_1_1_1_1_1_58_1_1_47_1_426", "X_2_1_1_1_1_1_24_1_1_48_1_426", "X_2_1_1_1_1_1_59_1_1_49_1_426", "X_2_1_1_1_1_1_25_1_1_50_1_426", "X_2_1_1_1_1_1_60_1_1_51_1_426", "X_2_1_1_1_1_1_26_1_1_52_1_426", "X_2_1_1_1_1_1_61_1_1_53_1_426", "X_2_1_1_1_1_1_27_1_1_54_1_426", "X_2_1_1_1_1_1_62_1_1_55_1_426", "X_2_1_1_1_1_1_28_1_1_56_1_426", "X_2_1_1_1_1_1_63_1_1_57_1_426", "X_2_1_1_1_1_1_29_1_1_58_1_426", "X_2_1_1_1_1_1_64_1_1_59_1_426", "X_2_1_1_1_1_1_30_1_1_60_1_426", "X_2_1_1_1_1_1_65_1_1_61_1_426", "X_2_1_1_1_1_1_31_1_1_62_1_426", "X_2_1_1_1_1_1_66_1_1_63_1_426", "X_2_1_1_1_1_1_32_1_1_64_1_426", "X_2_1_1_1_1_1_67_1_1_65_1_426", "X_2_1_1_1_1_1_33_1_1_66_1_426", "X_2_1_1_1_1_1_68_1_1_67_1_426", "X_2_1_1_1_1_1_34_1_1_68_1_426"], "CsaImage.ProtocolSliceNumber": [0, 1, 2, 3, 4, 5, 6, 7, 8, 9, 10, 11, 12, 13, 14, 15, 16, 17, 18, 19, 20, 21, 22, 23, 24, 25, 26, 27, 28, 29, 30, 31, 32, 33, 34, 35, 36, 37, 38, 39, 40, 41, 42, 43, 44, 45, 46, 47, 48, 49, 50, 51, 52, 53, 54, 55, 56, 57, 58, 59, 60, 61, 62, 63, 64, 65, 66, 67], "CsaImage.RFSWDDataType": ["predicted", "predicted", "predicted", "predicted", "predicted", "predicted", "predicted", "predicted", "predicted", "predicted", "predicted", "predicted", "predicted", "predicted", "predicted", "predicted", "predicted", "predicted", "predicted", "predicted", "predicted", "predicted", "predicted", "predicted", "predicted", "predicted", "measured", "predicted", "measured", "predicted", "measured", "predicted", "measured", "predicted", "measured", "predicted", "measured", "predicted", "measured", "predicted", "measured", "predicted", "measured", "predicted", "measured", "predicted", "measured", "predicted", "measured", "predicted", "measured", "predicted", "measured", "predicted", "measured", "predicted", "measured", "predicted", "measured", "predicted", "measured", "predicted", "measured", "predicted", "measured", "predicted", "measured", "predicted"], "CsaImage.SlicePosition_PCS": [[-119.81105188, -123.79344984, 9.17540249], [-119.81105188, -122.69269225, 11.30808529], [-119.81105188, -121.59193274, 13.44076427], [-119.81105188, -120.49117323, 15.57344707], [-119.81105188, -119.39041373, 17.70612606], [-119.81105188, -118.28965613, 19.83880886], [-119.81105188, -117.18889662, 21.97148975], [-119.81105188, -116.08813807, 24.10417255], [-119.81105188, -114.98737856, 26.23685345], [-119.81105188, -113.88662001, 28.36953434], [-119.81105188, -112.7858605, 30.50221523], [-119.81105188, -111.68510195, 32.63489803], [-119.81105188, -110.5843434, 34.76757893], [-119.81105188, -109.48358437, 36.90025982], [-119.81105188, -108.38282534, 39.03294167], [-119.81105188, -107.28206631, 41.16562256], [-119.81105188, -106.18130728, 43.29830345], [-119.81105188, -105.08054849, 45.4309853], [-119.81105188, -103.97978946, 47.56366667], [-119.81105188, -102.87903055, 49.69634804], [-119.81105188, -101.77827164, 51.82902935], [-119.81105188, -100.67751273, 53.96171078], [-119.81105188, -99.57675382, 56.09439215], [-119.81105188, -98.47599479, 58.22707352], [-119.81105188, -97.375236, 60.35975489], [-119.81105188, -96.27447697, 62.49243626], [-119.81105188, -95.17371794, 64.62511715], [-119.81105188, -94.07295891, 66.757799], [-119.81105188, -92.97219988, 68.89048084], [-119.81105188, -91.87144133, 71.02316174], [-119.81105188, -90.77068278, 73.15584263], [-119.81105188, -89.66992327, 75.28852352], [-119.81105188, -88.56916472, 77.42120632], [-119.81105188, -87.46840521, 79.55388721], [-119.81105188, -86.36764666, 81.68656811], [-119.81105188, -85.26688811, 83.819249], [-119.81105188, -84.1661286, 85.95192989], [-119.81105188, -83.06536909, 88.08461269], [-119.81105188, -81.9646115, 90.21729549], [-119.81105188, -80.86385199, 92.34997448], [-119.81105188, -79.76309248, 94.48265728], [-119.81105188, -78.66233488, 96.61533627], [-119.81105188, -77.56157538, 98.74801907], [-119.81105188, -76.46081587, 100.88070187], [-119.81105188, -75.36005637, 103.01338085], [-119.81105188, -74.25929877, 105.14606365], [-119.81105188, -73.15853926, 107.27874645], [-119.81105188, -72.05777975, 109.41142544], [-119.81105188, -70.95702216, 111.54410824], [-119.81105188, -69.85626265, 113.67678722], [-119.81105188, -68.75550505, 115.80947002], [-119.81105188, -67.65474364, 117.94214901], [-119.81105188, -66.55398604, 120.07483181], [-119.81105188, -65.45322844, 122.20751461], [-119.81105188, -64.35246703, 124.34019741], [-119.81105188, -63.25170943, 126.47288021], [-119.81105188, -62.15095183, 128.60555538], [-119.81105188, -61.05019041, 130.73823818], [-119.81105188, -59.94943282, 132.87092098], [-119.81105188, -58.84867522, 135.00360378], [-119.81105188, -57.7479138, 137.13628658], [-119.81105188, -56.6471562, 139.26896175], [-119.81105188, -55.54639479, 141.40164455], [-119.81105188, -54.44563719, 143.53432735], [-119.81105188, -53.34487959, 145.66701015], [-119.81105188, -52.24411818, 147.79969296], [-119.81105188, -51.14336058, 149.93236813], [-119.81105188, -50.04260298, 152.06505093]], "CsaImage.TimeAfterStart": [1.0975, 0.7325, 1.11, 0.745, 1.12, 0.755, 1.13, 0.765, 1.1425, 0.775, 1.1525, 0.7875, 1.1625, 0.7975, 1.175, 0.8075, 1.185, 0.82, 1.195, 0.83, 1.205, 0.84, 1.2175, 0.8525, 1.2275, 0.8625, 1.2375, 0.8725, 1.25, 0.8825, 1.26, 0.895, 1.27, 0.905, 1.2825, 0.915, 1.2925, 0.9275, 1.3025, 0.9375, 1.3125, 0.9475, 1.325, 0.96, 1.335, 0.97, 1.345, 0.98, 1.3575, 0.99, 1.3675, 1.0025, 1.3775, 1.0125, 1.39, 1.0225, 1.4, 1.035, 1.41, 1.045, 1.42, 1.055, 1.4325, 1.0675, 1.4425, 1.0775, 1.4525, 1.0875], "ImagePositionPatient": [[-119.81105187718, -123.79344984436, 9.1754024887612], [-119.81105187718, -122.69269224549, 11.308085289054], [-119.81105187718, -121.59193273926, 13.44076427465], [-119.81105187718, -120.49117323304, 15.573447074943], [-119.81105187718, -119.39041372681, 17.706126060539], [-119.81105187718, -118.28965612793, 19.838808860831], [-119.81105187718, -117.18889662171, 21.971489753776], [-119.81105187718, -116.08813806916, 24.104172554069], [-119.81105187718, -114.98737856293, 26.236853447013], [-119.81105187718, -113.88662001038, 28.369534339957], [-119.81105187718, -112.78586050415, 30.502215232902], [-119.81105187718, -111.6851019516, 32.634898033195], [-119.81105187718, -110.58434339905, 34.767578926139], [-119.81105187718, -109.48358436966, 36.900259819083], [-119.81105187718, -108.38282534027, 39.032941665702], [-119.81105187718, -107.28206631089, 41.165622558646], [-119.81105187718, -106.1813072815, 43.298303451591], [-119.81105187718, -105.08054849053, 45.430985298209], [-119.81105187718, -103.97978946114, 47.563666667991], [-119.81105187718, -102.87903055096, 49.696348037772], [-119.81105187718, -101.77827163892, 51.829029347949], [-119.81105187718, -100.6775127306, 53.961710777335], [-119.81105187718, -99.576753820423, 56.094392147117], [-119.81105187718, -98.475994791035, 58.227073516898], [-119.81105187718, -97.375236000065, 60.35975488668], [-119.81105187718, -96.274476970676, 62.492436256461], [-119.81105187718, -95.173717941288, 64.625117149406], [-119.81105187718, -94.0729589119, 66.757798996024], [-119.81105187718, -92.972199882511, 68.890480842643], [-119.81105187718, -91.87144132996, 71.023161735587], [-119.81105187718, -90.770682777409, 73.155842628532], [-119.81105187718, -89.669923271183, 75.288523521476], [-119.81105187718, -88.569164718632, 77.421206321769], [-119.81105187718, -87.468405212406, 79.553887214713], [-119.81105187718, -86.367646659855, 81.686568107658], [-119.81105187718, -85.266888107304, 83.819249000602], [-119.81105187718, -84.166128601078, 85.951929893546], [-119.81105187718, -83.065369094852, 88.084612693839], [-119.81105187718, -81.964611495976, 90.217295494132], [-119.81105187718, -80.86385198975, 92.349974479728], [-119.81105187718, -79.763092483524, 94.482657280021], [-119.81105187718, -78.662334884647, 96.615336265617], [-119.81105187718, -77.561575378422, 98.74801906591], [-119.81105187718, -76.460815872196, 100.8807018662], [-119.81105187718, -75.360056365971, 103.0133808518], [-119.81105187718, -74.259298767094, 105.14606365209], [-119.81105187718, -73.158539260868, 107.27874645238], [-119.81105187718, -72.057779754642, 109.41142543798], [-119.81105187718, -70.957022155766, 111.54410823827], [-119.81105187718, -69.85626264954, 113.67678722387], [-119.81105187718, -68.755505050663, 115.80947002416], [-119.81105187718, -67.654743637089, 117.94214900976], [-119.81105187718, -66.553986038212, 120.07483181005], [-119.81105187718, -65.453228439335, 122.20751461034], [-119.81105187718, -64.352467025761, 124.34019741064], [-119.81105187718, -63.251709426884, 126.47288021093], [-119.81105187718, -62.150951828007, 128.60555538183], [-119.81105187718, -61.050190414433, 130.73823818212], [-119.81105187718, -59.949432815556, 132.87092098241], [-119.81105187718, -58.848675216679, 135.00360378271], [-119.81105187718, -57.747913803104, 137.136286583], [-119.81105187718, -56.647156204227, 139.2689617539], [-119.81105187718, -55.546394790653, 141.40164455419], [-119.81105187718, -54.445637191776, 143.53432735448], [-119.81105187718, -53.344879592899, 145.66701015478], [-119.81105187718, -52.244118179325, 147.79969295507], [-119.81105187718, -51.143360580448, 149.93236812597], [-119.81105187718, -50.042602981571, 152.06505092626]], "InstanceCreationTime": ["073911.156000", "073910.843000", "073911.156000", "073910.875000", "073911.156000", "073910.875000", "073911.156000", "073910.875000", "073911.156000", "073911.031000", "073911.156000", "073911.031000", "073911.171000", "073911.031000", "073911.171000", "073911.046000", "073911.171000", "073911.046000", "073911.171000", "073911.078000", "073911.171000", "073911.078000", "073911.171000", "073911.078000", "073911.171000", "073911.078000", "073911.171000", "073911.078000", "073911.187000", "073911.093000", "073911.187000", "073911.093000", "073911.187000", "073911.093000", "073911.187000", "073911.125000", "073911.187000", "073911.125000", "073911.187000", "073911.125000", "073911.187000", "073911.125000", "073911.187000", "073911.125000", "073911.203000", "073911.125000", "073911.203000", "073911.125000", "073911.203000", "073911.140000", "073911.203000", "073911.140000", "073911.203000", "073911.140000", "073911.203000", "073911.140000", "073911.203000", "073911.140000", "073911.218000", "073911.140000", "073911.218000", "073911.140000", "073911.218000", "073911.140000", "073911.218000", "073911.156000", "073911.218000", "073911.156000"], "InstanceNumber": [1, 2, 3, 4, 5, 6, 7, 8, 9, 10, 11, 12, 13, 14, 15, 16, 17, 18, 19, 20, 21, 22, 23, 24, 25, 26, 27, 28, 29, 30, 31, 32, 33, 34, 35, 36, 37, 38, 39, 40, 41, 42, 43, 44, 45, 46, 47, 48, 49, 50, 51, 52, 53, 54, 55, 56, 57, 58, 59, 60, 61, 62, 63, 64, 65, 66, 67, 68], "LargestImagePixelValue": [4094, 4094, 4094, 4094, 4094, 4094, 4094, 4090, 4092, 4094, 4094, 4094, 4092, 4094, 4093, 4094, 4092, 4094, 4094, 4094, 4090, 4092, 4094, 4093, 4091, 4094, 4090, 4093, 4094, 4092, 4092, 4090, 4093, 4093, 4094, 4094, 4094, 4083, 4093, 4094, 4094, 4094, 4094, 4094, 4086, 4094, 4094, 4093, 4093, 4093, 4091, 4094, 4094, 4093, 4089, 4094, 4093, 4094, 4092, 4094, 4092, 4094, 4094, 4093, 4094, 4093, 4094, 4093], "SliceLocation": [-48.62438942162, -46.224388751172, -43.824390595726, -41.424389050474, -39.024390895028, -36.624390224581, -34.224390374232, -31.824389266382, -29.424389416033, -27.024390003087, -24.624390152738, -22.224389044888, -19.824389631941, -17.424390000293, -15.024389521194, -12.624389889546, -10.224390257898, -7.8243898881497, -5.4243898327761, -3.0243898320778, -0.624389883491, 1.7756101693188, 4.1756101700171, 6.5756102253906, 8.9756101714137, 11.375610226787, 13.775609858435, 16.175610337534, 18.575610816634, 20.97561022958, 23.375609642527, 25.775609492876, 28.175610600726, 30.575610451075, 32.975609864022, 35.375609276968, 37.775609127317, 40.175610672569, 42.575611343016, 44.975609498463, 47.375611043714, 49.775608324356, 52.175609869608, 54.57561141486, 56.975609570306, 59.375610240753, 61.775611786005, 64.175609941451, 66.575610611899, 68.975608767345, 71.375609437792, 73.775608468043, 76.17560913849, 78.575609808937, 80.975612228994, 83.375612899441, 85.775606790277, 88.175609210333, 90.575609880781, 92.975610551228, 95.375612971284, 97.77560686212, 100.17560928218, 102.57560995262, 104.97561062307, 107.37561304313, 109.77560693396, 112.17560760441], "SmallestImagePixelValue": [0, 1, 1, 0, 0, 0, 0, 2, 1, 0, 1, 0, 0, 0, 0, 0, 0, 0, 1, 0, 3, 0, 1, 7, 1, 0, 0, 0, 0, 2, 3, 2, 3, 3, 2, 3, 0, 2, 4, 1, 1, 2, 4, 7, 0, 0, 2, 4, 0, 1, 8, 0, 2, 1, 2, 0, 2, 0, 8, 0, 0, 0, 0, 1, 0, 0, 0, 0], "WindowCenter": [-400.0, -238.0, -198.0, -204.0, -260.0, -280.0, -314.0, -306.0, -398.0, -588.0, -578.0, -656.0, -518.0, -512.0, -518.0, -546.0, -560.0, -544.0, -528.0, -482.0, -466.0, -420.0, -424.0, -412.0, -428.0, -400.0, -384.0, -350.0, -346.0, -298.0, -230.0, -196.0, -222.0, -270.0, -256.0, -218.0, -178.0, -148.0, -138.0, -134.0, -124.0, -158.0, -144.0, -146.0, -148.0, -140.0, -154.0, -154.0, -148.0, -150.0, -184.0, -224.0, -184.0, -234.0, -220.0, -228.0, -226.0, -270.0, -326.0, -310.0, -288.0, -354.0, -344.0, -396.0, -404.0, -466.0, -478.0, -468.0], "WindowWidth": [5066.0, 5842.0, 6002.0, 6084.0, 5952.0, 6108.0, 6186.0, 6110.0, 5694.0, 4914.0, 4826.0, 4838.0, 4844.0, 4852.0, 4796.0, 4750.0, 4686.0, 4632.0, 4618.0, 4526.0, 4462.0, 4470.0, 4396.0, 4362.0, 4340.0, 4308.0, 4240.0, 4176.0, 4132.0, 4090.0, 4000.0, 3986.0, 3950.0, 3974.0, 3988.0, 4042.0, 4092.0, 4134.0, 4132.0, 4148.0, 4164.0, 4204.0, 4196.0, 4204.0, 4188.0, 4194.0, 4232.0, 4230.0, 4204.0, 4214.0, 4210.0, 4274.0, 4228.0, 4272.0, 4336.0, 4328.0, 4362.0, 4398.0, 4448.0, 4490.0, 4556.0, 4632.0, 4638.0, 4730.0, 4802.0, 4840.0, 4910.0, 4910.0]}}}