{
    "AcquisitionMatrixPE": 96,
    "AcquisitionNumber": 1,
    "AcquisitionTime": "07:41:33.150000",
    "BandwidthPerPixelPhaseEncode": 33.602,
    "BaseResolution": 96,
    "BodyPartExamined": "BRAIN",
    "ConsistencyInfo": "N4_VD11D_LATEST_20110129",
    "ConversionSoftware": "dcm2niix",
    "ConversionSoftwareVersion": "v1.0.20210317",
    "DerivedVendorReportedEchoSpacing": 0.000620003,
    "DeviceSerialNumber": "45239",
    "DwellTime": 2.6e-06,
    "EchoTime": 0.03,
    "EchoTrainLength": 48,
    "EffectiveEchoSpacing": 0.000310001,
    "FlipAngle": 63,
    "ImageComments": "Unaliased MB4/PE3",
    "ImageOrientationPatientDICOM": [
        0.999944,
        -0.00943461,
        0.00470395,
        0.0105423,
        0.894885,
        -0.446173
    ],
    "ImageType": [
        "ORIGINAL",
        "PRIMARY",
        "M",
        "ND",
        "NORM",
        "MOSAIC"
    ],
    "ImagingFrequency": 123.193,
    "InPlanePhaseEncodingDirectionDICOM": "COL",
    "InstitutionAddress": "E 24th St. 100,Austin,Southmiddle,US,78712",
    "InstitutionName": "Univ of Texas at Austin",
    "InstitutionalDepartmentName": "IRC",
    "MRAcquisitionType": "2D",
    "MagneticFieldStrength": 3,
    "Manufacturer": "Siemens",
    "ManufacturersModelName": "Skyra",
    "Modality": "MR",
    "MultibandAccelerationFactor": 4,
    "ParallelReductionFactorInPlane": 2,
    "PartialFourier": 1,
    "PatientPosition": "HFS",
    "PercentPhaseFOV": 100,
    "PercentSampling": 100,
    "PhaseEncodingDirection": "j-",
    "PhaseEncodingSteps": 96,
    "PhaseResolution": 1,
    "PixelBandwidth": 2005,
    "ProcedureStepDescription": "Poldrack2^self-scanning",
    "ProtocolName": "Resting State fMRI MBEPI_matrix96_BW2004",
    "PulseSequenceDetails": "%CustomerSeq%\\cmrr_mbep2d_bold",
    "ReceiveCoilActiveElements": "HEA;HEP",
    "ReceiveCoilName": "Head_32",
    "ReconMatrixPE": 96,
    "RefLinesPE": 94,
    "RepetitionTime": 1.16,
    "SAR": 0.10503,
    "ScanOptions": "FS",
    "ScanningSequence": "EP",
    "SequenceName": "epfid2d1_96",
    "SequenceVariant": "SK",
    "SeriesDescription": "Resting State fMRI MBEPI_matrix96_BW2004",
    "SeriesNumber": 6,
    "ShimSetting": [
        -2757,
        8050,
        -15408,
        170,
        -160,
        114,
        254,
        -50
    ],
    "SliceThickness": 2,
    "SliceTiming": [
        0,
        0.5,
        0.9975,
        0.3575,
        0.855,
        0.215,
        0.7125,
        0.0725,
        0.57,
        1.07,
        0.4275,
        0.9275,
        0.285,
        0.785,
        0.1425,
        0.6425,
        0,
        0.5,
        0.9975,
        0.3575,
        0.855,
        0.215,
        0.7125,
        0.0725,
        0.57,
        1.07,
        0.4275,
        0.9275,
        0.285,
        0.785,
        0.1425,
        0.6425,
        0,
        0.5,
        0.9975,
        0.3575,
        0.855,
        0.215,
        0.7125,
        0.0725,
        0.57,
        1.07,
        0.4275,
        0.9275,
        0.285,
        0.785,
        0.1425,
        0.6425,
        0,
        0.5,
        0.9975,
        0.3575,
        0.855,
        0.215,
        0.7125,
        0.0725,
        0.57,
        1.07,
        0.4275,
        0.9275,
        0.285,
        0.785,
        0.1425,
        0.6425
    ],
    "SoftwareVersions": "syngo MR D11",
    "SpacingBetweenSlices": 2.4,
    "StationName": "AWP45239",
    "TaskName": "Resting fmri",
    "TotalReadoutTime": 0.0294501,
    "TxRefAmp": 346.06,
    "WipMemBlock": "5af13861-8756-41ca-bfcd-1b16e72c93d1||Sequence: VD11D r206; Feb 13 2013 18:52:04 by eja",
    "dcmmeta_affine": [
        [
            -2.395700216293335,
            0.025257475674152374,
            5.023996862973945e-08,
            118.7342758178711
        ],
        [
            0.02260376140475273,
            2.1439943313598633,
            -1.070874810218811,
            -86.63945770263672
        ],
        [
            0.011269875802099705,
            1.0689561367034912,
            2.1478424072265625,
            -77.30351257324219
        ],
        [
            0.0,
            0.0,
            0.0,
            1.0
        ]
    ],
    "dcmmeta_reorient_transform": [
        [
            0.0,
            -1.0,
            0.0,
            95.0
        ],
        [
            1.0,
            0.0,
            0.0,
            0.0
        ],
        [
            0.0,
            0.0,
            1.0,
            0.0
        ],
        [
            0.0,
            0.0,
            0.0,
            1.0
        ]
    ],
    "dcmmeta_shape": [
        96,
        96,
        64,
        518
    ],
    "dcmmeta_slice_dim": 2,
    "dcmmeta_version": 0.6,
    "global": {
        "const": {
            "AcquisitionMatrix": [
                96,
                0,
                0,
                96
            ],
            "AngioFlag": "N",
            "BitsAllocated": 16,
            "BitsStored": 16,
            "BodyPartExamined": "BRAIN",
            "Columns": 768,
            "EchoNumbers": 1,
            "EchoTime": 30.0,
            "EchoTrainLength": 48,
            "FlipAngle": 63.0,
            "HighBit": 15,
            "ImageOrientationPatient": [
                0.99994442892572,
                -0.0094346134383,
                0.00470394830872,
                0.01054225120273,
                0.89488462243074,
                -0.446173030871
            ],
            "ImagePositionPatient": [
                -934.57548597203,
                -829.82724094818,
                379.62992650263
            ],
            "ImageType": [
                "ORIGINAL",
                "PRIMARY",
                "M",
                "ND",
                "NORM",
                "MOSAIC"
            ],
            "ImagedNucleus": "1H",
            "ImagingFrequency": 123.193168,
            "InPlanePhaseEncodingDirection": "COL",
            "MRAcquisitionType": "2D",
            "MagneticFieldStrength": 3.0,
            "Manufacturer": "SIEMENS",
            "ManufacturerModelName": "Skyra",
            "Modality": "MR",
            "NumberOfAverages": 1.0,
            "NumberOfPhaseEncodingSteps": 96,
            "PercentPhaseFieldOfView": 100.0,
            "PercentSampling": 100.0,
            "PerformedProcedureStepStartTime": "073506.750000",
            "PhotometricInterpretation": "MONOCHROME2",
            "PixelBandwidth": 2005.0,
            "PixelRepresentation": 0,
            "PixelSpacing": [
                2.3958332538605,
                2.3958332538605
            ],
            "ProtocolName": "Resting State fMRI MBEPI_matrix96_BW2004",
            "RepetitionTime": 1160.0,
            "Rows": 768,
            "SAR": 0.10502963663435,
            "SamplesPerPixel": 1,
            "ScanOptions": "FS",
            "ScanningSequence": "EP",
            "SequenceName": "epfid2d1_96",
            "SequenceVariant": "SK",
            "SeriesDescription": "Resting State fMRI MBEPI_matrix96_BW2004",
            "SeriesNumber": 6,
            "SeriesTime": "074211.515000",
            "SliceLocation": -30.523228598623,
            "SliceThickness": 2.0,
            "SmallestImagePixelValue": 0,
            "SoftwareVersions": "syngo MR D11",
            "SpacingBetweenSlices": 2.3999999762654,
            "SpecificCharacterSet": "ISO_IR 100",
            "StudyID": "1",
            "StudyTime": "073506.703000",
            "TransmitCoilName": "Body",
            "VariableFlipAngleFlag": "N",
            "WindowCenterWidthExplanation": "Algo1",
            "dBdt": 0.0
        },
        "slices": {}
    },
    "time": {
        "samples": {
            "AcquisitionNumber": [
                1,
                2,
                3,
                4,
                5,
                6,
                7,
                8,
                9,
                10,
                11,
                12,
                13,
                14,
                15,
                16,
                17,
                18,
                19,
                20,
                21,
                22,
                23,
                24,
                25,
                26,
                27,
                28,
                29,
                30,
                31,
                32,
                33,
                34,
                35,
                36,
                37,
                38,
                39,
                40,
                41,
                42,
                43,
                44,
                45,
                46,
                47,
                48,
                49,
                50,
                51,
                52,
                53,
                54,
                55,
                56,
                57,
                58,
                59,
                60,
                61,
                62,
                63,
                64,
                65,
                66,
                67,
                68,
                69,
                70,
                71,
                72,
                73,
                74,
                75,
                76,
                77,
                78,
                79,
                80,
                81,
                82,
                83,
                84,
                85,
                86,
                87,
                88,
                89,
                90,
                91,
                92,
                93,
                94,
                95,
                96,
                97,
                98,
                99,
                100,
                101,
                102,
                103,
                104,
                105,
                106,
                107,
                108,
                109,
                110,
                111,
                112,
                113,
                114,
                115,
                116,
                117,
                118,
                119,
                120,
                121,
                122,
                123,
                124,
                125,
                126,
                127,
                128,
                129,
                130,
                131,
                132,
                133,
                134,
                135,
                136,
                137,
                138,
                139,
                140,
                141,
                142,
                143,
                144,
                145,
                146,
                147,
                148,
                149,
                150,
                151,
                152,
                153,
                154,
                155,
                156,
                157,
                158,
                159,
                160,
                161,
                162,
                163,
                164,
                165,
                166,
                167,
                168,
                169,
                170,
                171,
                172,
                173,
                174,
                175,
                176,
                177,
                178,
                179,
                180,
                181,
                182,
                183,
                184,
                185,
                186,
                187,
                188,
                189,
                190,
                191,
                192,
                193,
                194,
                195,
                196,
                197,
                198,
                199,
                200,
                201,
                202,
                203,
                204,
                205,
                206,
                207,
                208,
                209,
                210,
                211,
                212,
                213,
                214,
                215,
                216,
                217,
                218,
                219,
                220,
                221,
                222,
                223,
                224,
                225,
                226,
                227,
                228,
                229,
                230,
                231,
                232,
                233,
                234,
                235,
                236,
                237,
                238,
                239,
                240,
                241,
                242,
                243,
                244,
                245,
                246,
                247,
                248,
                249,
                250,
                251,
                252,
                253,
                254,
                255,
                256,
                257,
                258,
                259,
                260,
                261,
                262,
                263,
                264,
                265,
                266,
                267,
                268,
                269,
                270,
                271,
                272,
                273,
                274,
                275,
                276,
                277,
                278,
                279,
                280,
                281,
                282,
                283,
                284,
                285,
                286,
                287,
                288,
                289,
                290,
                291,
                292,
                293,
                294,
                295,
                296,
                297,
                298,
                299,
                300,
                301,
                302,
                303,
                304,
                305,
                306,
                307,
                308,
                309,
                310,
                311,
                312,
                313,
                314,
                315,
                316,
                317,
                318,
                319,
                320,
                321,
                322,
                323,
                324,
                325,
                326,
                327,
                328,
                329,
                330,
                331,
                332,
                333,
                334,
                335,
                336,
                337,
                338,
                339,
                340,
                341,
                342,
                343,
                344,
                345,
                346,
                347,
                348,
                349,
                350,
                351,
                352,
                353,
                354,
                355,
                356,
                357,
                358,
                359,
                360,
                361,
                362,
                363,
                364,
                365,
                366,
                367,
                368,
                369,
                370,
                371,
                372,
                373,
                374,
                375,
                376,
                377,
                378,
                379,
                380,
                381,
                382,
                383,
                384,
                385,
                386,
                387,
                388,
                389,
                390,
                391,
                392,
                393,
                394,
                395,
                396,
                397,
                398,
                399,
                400,
                401,
                402,
                403,
                404,
                405,
                406,
                407,
                408,
                409,
                410,
                411,
                412,
                413,
                414,
                415,
                416,
                417,
                418,
                419,
                420,
                421,
                422,
                423,
                424,
                425,
                426,
                427,
                428,
                429,
                430,
                431,
                432,
                433,
                434,
                435,
                436,
                437,
                438,
                439,
                440,
                441,
                442,
                443,
                444,
                445,
                446,
                447,
                448,
                449,
                450,
                451,
                452,
                453,
                454,
                455,
                456,
                457,
                458,
                459,
                460,
                461,
                462,
                463,
                464,
                465,
                466,
                467,
                468,
                469,
                470,
                471,
                472,
                473,
                474,
                475,
                476,
                477,
                478,
                479,
                480,
                481,
                482,
                483,
                484,
                485,
                486,
                487,
                488,
                489,
                490,
                491,
                492,
                493,
                494,
                495,
                496,
                497,
                498,
                499,
                500,
                501,
                502,
                503,
                504,
                505,
                506,
                507,
                508,
                509,
                510,
                511,
                512,
                513,
                514,
                515,
                516,
                517,
                518
            ],
            "AcquisitionTime": [
                "074133.150000",
                "074202.150000",
                "074203.310000",
                "074204.470000",
                "074205.630000",
                "074206.790000",
                "074207.950000",
                "074209.110000",
                "074210.270000",
                "074211.430000",
                "074212.590000",
                "074213.750000",
                "074214.910000",
                "074216.070000",
                "074217.230000",
                "074218.390000",
                "074219.550000",
                "074220.710000",
                "074221.870000",
                "074223.030000",
                "074224.190000",
                "074225.350000",
                "074226.510000",
                "074227.670000",
                "074228.830000",
                "074229.990000",
                "074231.150000",
                "074232.310000",
                "074233.470000",
                "074234.630000",
                "074235.790000",
                "074236.950000",
                "074238.110000",
                "074239.270000",
                "074240.430000",
                "074241.590000",
                "074242.750000",
                "074243.910000",
                "074245.070000",
                "074246.230000",
                "074247.390000",
                "074248.550000",
                "074249.710000",
                "074250.870000",
                "074252.030000",
                "074253.190000",
                "074254.350000",
                "074255.510000",
                "074256.670000",
                "074257.830000",
                "074258.990000",
                "074300.150000",
                "074301.310000",
                "074302.470000",
                "074303.630000",
                "074304.790000",
                "074305.950000",
                "074307.110000",
                "074308.270000",
                "074309.430000",
                "074310.590000",
                "074311.750000",
                "074312.910000",
                "074314.070000",
                "074315.230000",
                "074316.390000",
                "074317.550000",
                "074318.710000",
                "074319.870000",
                "074321.030000",
                "074322.190000",
                "074323.350000",
                "074324.510000",
                "074325.670000",
                "074326.830000",
                "074327.990000",
                "074329.150000",
                "074330.312500",
                "074331.472500",
                "074332.632500",
                "074333.792500",
                "074334.952500",
                "074336.112500",
                "074337.272500",
                "074338.432500",
                "074339.592500",
                "074340.752500",
                "074341.912500",
                "074343.072500",
                "074344.232500",
                "074345.392500",
                "074346.552500",
                "074347.712500",
                "074348.872500",
                "074350.032500",
                "074351.192500",
                "074352.352500",
                "074353.512500",
                "074354.672500",
                "074355.832500",
                "074356.992500",
                "074358.152500",
                "074359.312500",
                "074400.472500",
                "074401.632500",
                "074402.792500",
                "074403.952500",
                "074405.112500",
                "074406.272500",
                "074407.432500",
                "074408.592500",
                "074409.752500",
                "074410.912500",
                "074412.072500",
                "074413.232500",
                "074414.392500",
                "074415.552500",
                "074416.712500",
                "074417.872500",
                "074419.032500",
                "074420.192500",
                "074421.352500",
                "074422.512500",
                "074423.672500",
                "074424.832500",
                "074425.992500",
                "074427.152500",
                "074428.312500",
                "074429.472500",
                "074430.632500",
                "074431.792500",
                "074432.952500",
                "074434.112500",
                "074435.272500",
                "074436.432500",
                "074437.592500",
                "074438.752500",
                "074439.912500",
                "074441.072500",
                "074442.232500",
                "074443.392500",
                "074444.552500",
                "074445.712500",
                "074446.872500",
                "074448.032500",
                "074449.192500",
                "074450.352500",
                "074451.512500",
                "074452.672500",
                "074453.832500",
                "074454.992500",
                "074456.152500",
                "074457.312500",
                "074458.472500",
                "074459.632500",
                "074500.792500",
                "074501.952500",
                "074503.112500",
                "074504.272500",
                "074505.432500",
                "074506.592500",
                "074507.752500",
                "074508.912500",
                "074510.072500",
                "074511.232500",
                "074512.392500",
                "074513.552500",
                "074514.712500",
                "074515.872500",
                "074517.032500",
                "074518.192500",
                "074519.352500",
                "074520.512500",
                "074521.672500",
                "074522.832500",
                "074523.992500",
                "074525.152500",
                "074526.312500",
                "074527.472500",
                "074528.632500",
                "074529.792500",
                "074530.952500",
                "074532.112500",
                "074533.272500",
                "074534.432500",
                "074535.592500",
                "074536.752500",
                "074537.912500",
                "074539.072500",
                "074540.232500",
                "074541.392500",
                "074542.552500",
                "074543.712500",
                "074544.872500",
                "074546.032500",
                "074547.192500",
                "074548.352500",
                "074549.512500",
                "074550.672500",
                "074551.832500",
                "074552.992500",
                "074554.152500",
                "074555.312500",
                "074556.472500",
                "074557.632500",
                "074558.792500",
                "074559.952500",
                "074601.112500",
                "074602.272500",
                "074603.432500",
                "074604.592500",
                "074605.752500",
                "074606.912500",
                "074608.072500",
                "074609.232500",
                "074610.392500",
                "074611.552500",
                "074612.712500",
                "074613.872500",
                "074615.032500",
                "074616.192500",
                "074617.352500",
                "074618.512500",
                "074619.672500",
                "074620.832500",
                "074621.992500",
                "074623.152500",
                "074624.312500",
                "074625.472500",
                "074626.632500",
                "074627.792500",
                "074628.952500",
                "074630.112500",
                "074631.272500",
                "074632.432500",
                "074633.592500",
                "074634.752500",
                "074635.912500",
                "074637.072500",
                "074638.232500",
                "074639.392500",
                "074640.552500",
                "074641.712500",
                "074642.872500",
                "074644.032500",
                "074645.192500",
                "074646.352500",
                "074647.512500",
                "074648.672500",
                "074649.832500",
                "074650.992500",
                "074652.152500",
                "074653.312500",
                "074654.472500",
                "074655.632500",
                "074656.792500",
                "074657.952500",
                "074659.112500",
                "074700.272500",
                "074701.432500",
                "074702.592500",
                "074703.752500",
                "074704.912500",
                "074706.072500",
                "074707.232500",
                "074708.392500",
                "074709.552500",
                "074710.712500",
                "074711.872500",
                "074713.032500",
                "074714.192500",
                "074715.352500",
                "074716.512500",
                "074717.672500",
                "074718.832500",
                "074719.992500",
                "074721.152500",
                "074722.312500",
                "074723.472500",
                "074724.632500",
                "074725.792500",
                "074726.952500",
                "074728.112500",
                "074729.272500",
                "074730.432500",
                "074731.592500",
                "074732.752500",
                "074733.912500",
                "074735.072500",
                "074736.232500",
                "074737.392500",
                "074738.552500",
                "074739.712500",
                "074740.872500",
                "074742.032500",
                "074743.192500",
                "074744.352500",
                "074745.512500",
                "074746.672500",
                "074747.832500",
                "074748.992500",
                "074750.152500",
                "074751.312500",
                "074752.472500",
                "074753.632500",
                "074754.792500",
                "074755.952500",
                "074757.112500",
                "074758.272500",
                "074759.432500",
                "074800.592500",
                "074801.752500",
                "074802.912500",
                "074804.072500",
                "074805.232500",
                "074806.392500",
                "074807.552500",
                "074808.712500",
                "074809.872500",
                "074811.032500",
                "074812.192500",
                "074813.352500",
                "074814.512500",
                "074815.672500",
                "074816.832500",
                "074817.992500",
                "074819.152500",
                "074820.315000",
                "074821.475000",
                "074822.635000",
                "074823.795000",
                "074824.955000",
                "074826.115000",
                "074827.275000",
                "074828.435000",
                "074829.595000",
                "074830.755000",
                "074831.915000",
                "074833.075000",
                "074834.235000",
                "074835.395000",
                "074836.555000",
                "074837.715000",
                "074838.875000",
                "074840.035000",
                "074841.195000",
                "074842.355000",
