{"AcquisitionMatrixPE": 96, "AcquisitionNumber": 1, "AcquisitionTime": "07:54:5.375000", "BandwidthPerPixelPhaseEncode": 33.602, "BaseResolution": 96, "BodyPartExamined": "BRAIN", "ConsistencyInfo": "N4_VD13A_LATEST_20120616", "ConversionSoftware": "dcm2niix", "ConversionSoftwareVersion": "v1.0.20210317", "DerivedVendorReportedEchoSpacing": 0.000620003, "DeviceSerialNumber": "45239", "DwellTime": 2.6e-06, "EchoTime": 0.03, "EchoTrainLength": 47, "EffectiveEchoSpacing": 0.000310001, "FlipAngle": 63, "ImageComments": "Unaliased MB4/PE3", "ImageOrientationPatientDICOM": [0.999983, 0.00471668, 0.00333749, -0.00244343, 0.868623, -0.495468], "ImageType": ["ORIGINAL", "PRIMARY", "M", "ND", "NORM", "MOSAIC"], "ImagingFrequency": 123.191, "InPlanePhaseEncodingDirectionDICOM": "COL", "InstitutionAddress": "E 24th St. 100,Austin,Southmiddle,US,78712", "InstitutionName": "Univ of Texas at Austin", "InstitutionalDepartmentName": "IRC", "MRAcquisitionType": "2D", "MagneticFieldStrength": 3, "Manufacturer": "Siemens", "ManufacturersModelName": "Skyra", "Modality": "MR", "MultibandAccelerationFactor": 4, "ParallelReductionFactorInPlane": 2, "PartialFourier": 1, "PatientPosition": "HFS", "PercentPhaseFOV": 100, "PercentSampling": 100, "PhaseEncodingDirection": "j-", "PhaseEncodingSteps": 95, "PhaseResolution": 1, "PixelBandwidth": 2005, "ProcedureStepDescription": "Poldrack2^self-scanning", "ProtocolName": "hard_easy_loc", "PulseSequenceDetails": "%CustomerSeq%\\cmrr_mbep2d_bold", "ReceiveCoilActiveElements": "HEA;HEP", "ReceiveCoilName": "Head_32", "ReconMatrixPE": 96, "RefLinesPE": 48, "RepetitionTime": 1.16, "SAR": 0.113595, "ScanOptions": "FS", "ScanningSequence": "EP", "SequenceName": "epfid2d1_96", "SequenceVariant": "SK", "SeriesDescription": "hard_easy_loc", "SeriesNumber": 10, "ShimSetting": [-2977, 8277, -15342, -681, 49, -506, 329, 125], "SliceThickness": 2, "SliceTiming": [0, 0.4975, 0.9975, 0.355, 0.855, 0.2125, 0.7125, 0.07, 0.57, 1.0675, 0.4275, 0.925, 0.285, 0.7825, 0.1425, 0.64, 0, 0.4975, 0.9975, 0.355, 0.855, 0.2125, 0.7125, 0.07, 0.57, 1.0675, 0.4275, 0.925, 0.285, 0.7825, 0.1425, 0.64, 0, 0.4975, 0.9975, 0.355, 0.855, 0.2125, 0.7125, 0.07, 0.57, 1.0675, 0.4275, 0.925, 0.285, 0.7825, 0.1425, 0.64, 0, 0.4975, 0.9975, 0.355, 0.855, 0.2125, 0.7125, 0.07, 0.57, 1.0675, 0.4275, 0.925, 0.285, 0.7825, 0.1425, 0.64], "SoftwareVersions": "syngo MR D13", "SpacingBetweenSlices": 2.4, "StationName": "AWP45239", "TaskName": "Spatial working memory task", "TotalReadoutTime": 0.0294501, "TxRefAmp": 336.475, "WipMemBlock": "02429fd6-6153-44d8-aeed-9efedd15c04b||Sequence: vd13a/R010 r/fd129fc; Dec 13 2013 16:14:27 by eja", "dcmmeta_affine": [[-2.3957931995391846, -0.005854062736034393, 0.012566356919705868, 113.66757202148438], [-0.011300375685095787, 2.0810749530792236, -1.1890844106674194, -80.86116027832031], [0.007996064610779285, 1.1870594024658203, 2.0846869945526123, -82.24976348876953], [0.0, 0.0, 0.0, 1.0]], "dcmmeta_reorient_transform": [[0.0, -1.0, 0.0, 95.0], [1.0, 0.0, 0.0, 0.0], [0.0, 0.0, 1.0, 0.0], [0.0, 0.0, 0.0, 1.0]], "dcmmeta_shape": [96, 96, 64, 387], "dcmmeta_slice_dim": 2, "dcmmeta_version": 0.6, "global": {"const": {"AcquisitionMatrix": [96, 0, 0, 96], "AngioFlag": "N", "BitsAllocated": 16, "BitsStored": 16, "BodyPartExamined": "BRAIN", "Columns": 768, "DeidentificationMethodCodeSequence": [{"CodeMeaning": "XNAT Edit Script", "CodeValue": "93", "CodingSchemeDesignator": "XNAT", "CodingSchemeVersion": "0.1"}], "EchoNumbers": 1, "EchoTime": 30.0, "EchoTrainLength": 47, "FlipAngle": 63.0, "HighBit": 15, "ImageOrientationPatient": [0.99998330691992, 0.00471667857852, 0.00333748778179, -0.0024434350084, 0.86862259179097, -0.495468286226], "ImagePositionPatient": [-916.13100284083, -819.87904254794, 426.6861599278], "ImageType": ["ORIGINAL", "PRIMARY", "M", "ND", "NORM", "MOSAIC"], "ImagedNucleus": "1H", "ImagingFrequency": 123.191107, "InPlanePhaseEncodingDirection": "COL", "MRAcquisitionType": "2D", "MagneticFieldStrength": 3.0, "Manufacturer": "SIEMENS", "ManufacturerModelName": "Skyra", "Modality": "MR", "NumberOfAverages": 1.0, "NumberOfPhaseEncodingSteps": 95, "PercentPhaseFieldOfView": 100.0, "PercentSampling": 100.0, "PerformedProcedureStepStartTime": "071417.917000", "PhotometricInterpretation": "MONOCHROME2", "PixelBandwidth": 2005.0, "PixelRepresentation": 0, "PixelSpacing": [2.3958332538605, 2.3958332538605], "ProtocolName": "hard_easy_loc", "RepetitionTime": 1160.0, "Rows": 768, "SAR": 0.11359487419935, "SamplesPerPixel": 1, "ScanOptions": "FS", "ScanningSequence": "EP", "SequenceName": "epfid2d1_96", "SequenceVariant": "SK", "SeriesDescription": "hard_easy_loc", "SeriesNumber": 10, "SeriesTime": "075448.413000", "SliceLocation": -30.785782859844, "SliceThickness": 2.0, "SmallestImagePixelValue": 0, "SoftwareVersions": "syngo MR D13", "SpacingBetweenSlices": 2.3999999750538, "SpecificCharacterSet": "ISO_IR 100", "StudyID": "1", "StudyTime": "071417.813000", "TransmitCoilName": "Body", "VariableFlipAngleFlag": "N", "WindowCenterWidthExplanation": "Algo1", "dBdt": 0.0}, "slices": {}}, "time": {"samples": {"AcquisitionNumber": [1, 2, 3, 4, 5, 6, 7, 8, 9, 10, 11, 12, 13, 14, 15, 16, 17, 18, 19, 20, 21, 22, 23, 24, 25, 26, 27, 28, 29, 30, 31, 32, 33, 34, 35, 36, 37, 38, 39, 40, 41, 42, 43, 44, 45, 46, 47, 48, 49, 50, 51, 52, 53, 54, 55, 56, 57, 58, 59, 60, 61, 62, 63, 64, 65, 66, 67, 68, 69, 70, 71, 72, 73, 74, 75, 76, 77, 78, 79, 80, 81, 82, 83, 84, 85, 86, 87, 88, 89, 90, 91, 92, 93, 94, 95, 96, 97, 98, 99, 100, 101, 102, 103, 104, 105, 106, 107, 108, 109, 110, 111, 112, 113, 114, 115, 116, 117, 118, 119, 120, 121, 122, 123, 124, 125, 126, 127, 128, 129, 130, 131, 132, 133, 134, 135, 136, 137, 138, 139, 140, 141, 142, 143, 144, 145, 146, 147, 148, 149, 150, 151, 152, 153, 154, 155, 156, 157, 158, 159, 160, 161, 162, 163, 164, 165, 166, 167, 168, 169, 170, 171, 172, 173, 174, 175, 176, 177, 178, 179, 180, 181, 182, 183, 184, 185, 186, 187, 188, 189, 190, 191, 192, 193, 194, 195, 196, 197, 198, 199, 200, 201, 202, 203, 204, 205, 206, 207, 208, 209, 210, 211, 212, 213, 214, 215, 216, 217, 218, 219, 220, 221, 222, 223, 224, 225, 226, 227, 228, 229, 230, 231, 232, 233, 234, 235, 236, 237, 238, 239, 240, 241, 242, 243, 244, 245, 246, 247, 248, 249, 250, 251, 252, 253, 254, 255, 256, 257, 258, 259, 260, 261, 262, 263, 264, 265, 266, 267, 268, 269, 270, 271, 272, 273, 274, 275, 276, 277, 278, 279, 280, 281, 282, 283, 284, 285, 286, 287, 288, 289, 290, 291, 292, 293, 294, 295, 296, 297, 298, 299, 300, 301, 302, 303, 304, 305, 306, 307, 308, 309, 310, 311, 312, 313, 314, 315, 316, 317, 318, 319, 320, 321, 322, 323, 324, 325, 326, 327, 328, 329, 330, 331, 332, 333, 334, 335, 336, 337, 338, 339, 340, 341, 342, 343, 344, 345, 346, 347, 348, 349, 350, 351, 352, 353, 354, 355, 356, 357, 358, 359, 360, 361, 362, 363, 364, 365, 366, 367, 368, 369, 370, 371, 372, 373, 374, 375, 376, 377, 378, 379, 380, 381, 382, 383, 384, 385, 386, 387], "AcquisitionTime": ["075405.375000", "075412.315000", "075413.475000", "075414.635000", "075415.795000", "075416.955000", "075418.115000", "075419.275000", "075420.435000", "075421.595000", "075422.755000", "075423.915000", "075425.075000", "075426.235000", "075427.395000", "075428.555000", "075429.715000", "075430.875000", "075432.035000", "075433.195000", "075434.355000", "075435.515000", "075436.675000", "075437.835000", "075438.995000", "075440.155000", "075441.315000", "075442.475000", "075443.635000", "075444.795000", "075445.955000", "075447.115000", "075448.275000", "075449.435000", "075450.595000", "075451.755000", "075452.915000", "075454.075000", "075455.235000", "075456.395000", "075457.555000", "075458.715000", "075459.875000", "075501.035000", "075502.195000", "075503.355000", "075504.515000", "075505.675000", "075506.835000", "075507.995000", "075509.155000", "075510.315000", "075511.475000", "075512.635000", "075513.795000", "075514.955000", "075516.115000", "075517.275000", "075518.435000", "075519.595000", "075520.755000", "075521.915000", "075523.075000", "075524.235000", "075525.395000", "075526.555000", "075527.715000", "075528.875000", "075530.035000", "075531.195000", "075532.355000", "075533.515000", "075534.675000", "075535.835000", "075536.995000", "075538.155000", "075539.315000", "075540.475000", "075541.635000", "075542.795000", "075543.955000", "075545.115000", "075546.275000", "075547.435000", "075548.595000", "075549.755000", "075550.915000", "075552.075000", "075553.235000", "075554.395000", "075555.555000", "075556.715000", "075557.875000", "075559.035000", "075600.195000", "075601.355000", "075602.515000", "075603.675000", "075604.835000", "075605.995000", "075607.155000", "075608.315000", "075609.475000", "075610.635000", "075611.795000", "075612.955000", "075614.115000", "075615.275000", "075616.435000", "075617.595000", "075618.755000", "075619.915000", "075621.075000", "075622.235000", "075623.395000", "075624.555000", "075625.715000", "075626.875000", "075628.035000", "075629.195000", "075630.355000", "075631.515000", "075632.675000", "075633.835000", "075634.995000", "075636.155000", "075637.315000", "075638.475000", "075639.635000", "075640.795000", "075641.955000", "075643.115000", "075644.275000", "075645.435000", "075646.595000", "075647.755000", "075648.915000", "075650.075000", "075651.235000", "075652.395000", "075653.555000", "075654.715000", "075655.875000", "075657.035000", "075658.195000", "075659.355000", "075700.515000", "075701.675000", "075702.835000", "075703.995000", "075705.155000", "075706.315000", "075707.475000", "075708.635000", "075709.795000", "075710.955000", "075712.115000", "075713.275000", "075714.435000", "075715.595000", "075716.755000", "075717.915000", "075719.075000", "075720.235000", "075721.395000", "075722.555000", "075723.715000", "075724.875000", "075726.035000", "075727.195000", "075728.355000", "075729.515000", "075730.675000", "075731.835000", "075732.995000", "075734.155000", "075735.315000", "075736.475000", "075737.635000", "075738.795000", "075739.955000", "075741.115000", "075742.275000", "075743.435000", "075744.595000", "075745.755000", "075746.915000", "075748.075000", "075749.235000", "075750.395000", "075751.555000", "075752.715000", "075753.875000", "075755.035000", "075756.195000", "075757.355000", "075758.515000", "075759.675000", "075800.835000", "075801.995000", "075803.155000", "075804.315000", "075805.475000", "075806.635000", "075807.795000", "075808.957500", "075810.117500", "075811.277500", "075812.437500", "075813.597500", "075814.757500", "075815.917500", "075817.077500", "075818.237500", "075819.397500", "075820.557500", "075821.717500", "075822.877500", "075824.037500", "075825.197500", "075826.357500", "075827.517500", "075828.677500", "075829.837500", "075830.997500", "075832.157500", "075833.317500", "075834.477500", "075835.637500", "075836.797500", "075837.957500", "075839.117500", "075840.277500", "075841.437500", "075842.597500", "075843.757500", "075844.917500", "075846.077500", "075847.237500", "075848.397500", "075849.557500", "075850.717500", "075851.877500", "075853.037500", "075854.197500", "075855.357500", "075856.517500", "075857.677500", "075858.837500", "075859.997500", "075901.157500", "075902.317500", "075903.477500", "075904.637500", "075905.797500", "075906.957500", "075908.117500", "075909.277500", "075910.437500", "075911.597500", "075912.757500", "075913.917500", "075915.077500", "075916.237500", "075917.397500", "075918.557500", "075919.717500", "075920.877500", "075922.037500", "075923.197500", "075924.357500", "075925.517500", "075926.677500", "075927.837500", "075928.997500", "075930.157500", "075931.317500", "075932.477500", "075933.637500", "075934.797500", "075935.957500", "075937.117500", "075938.277500", "075939.437500", "075940.597500", "075941.757500", "075942.917500", "075944.077500", "075945.237500", "075946.397500", "075947.557500", "075948.717500", "075949.877500", "075951.037500", "075952.197500", "075953.357500", "075954.517500", "075955.677500", "075956.837500", "075957.997500", "075959.157500", "080000.317500", "080001.477500", "080002.637500", "080003.797500", "080004.957500", "080006.117500", "080007.277500", "080008.437500", "080009.597500", "080010.757500", "080011.917500", "080013.077500", "080014.237500", "080015.397500", "080016.557500", "080017.717500", "080018.877500", "080020.037500", "080021.197500", "080022.357500", "080023.517500", "080024.677500", "080025.837500", "080026.997500", "080028.157500", "080029.317500", "080030.477500", "080031.637500", "080032.797500", "080033.957500", "080035.117500", "080036.277500", "080037.437500", "080038.597500", "080039.757500", "080040.917500", "080042.077500", "080043.237500", "080044.397500", "080045.557500", "080046.717500", "080047.877500", "080049.037500", "080050.197500", "080051.357500", "080052.517500", "080053.677500", "080054.837500", "080055.997500", "080057.157500", "080058.317500", "080059.477500", "080100.637500", "080101.797500", "080102.957500", "080104.117500", "080105.277500", "080106.437500", "080107.597500", "080108.757500", "080109.917500", "080111.077500", "080112.237500", "080113.397500", "080114.557500", "080115.717500", "080116.877500", "080118.037500", "080119.197500", "080120.357500", "080121.517500", "080122.677500", "080123.837500", "080124.997500", "080126.157500", "080127.317500", "080128.477500", "080129.637500", "080130.797500", "080131.957500", "080133.117500", "080134.277500", "080135.437500", "080136.597500", "080137.757500", "080138.917500"], "ContentTime": ["075448.417000", "075448.422000", "075448.426000", "075448.430000", "075448.433000", "075448.437000", "075448.441000", "075448.445000", "075448.449000", "075448.452000", "075448.456000", "075448.460000", "075448.465000", "075448.469000", "075448.472000", "075448.476000", "075448.481000", "075448.484000", "075448.488000", "075448.492000", "075448.496000", "075448.500000", "075448.504000", "075448.509000", "075448.513000", "075448.517000", "075448.521000", "075508.341000", "075508.345000", "075508.349000", "075508.354000", "075508.358000", "075508.362000", "075508.366000", "075508.370000", "075508.378000", "075508.382000", "075508.386000", "075508.390000", "075508.394000", "075508.398000", "075508.402000", "075508.405000", "075508.409000", "075508.413000", "075508.417000", "075508.421000", "075548.339000", "075548.344000", "075548.348000", "075548.352000", "075548.356000", "075548.360000", "075548.363000", "075548.367000", "075548.372000", "075548.376000", "075548.379000", "075548.383000", "075548.387000", "075548.391000", "075548.395000", "075548.400000", "075548.404000", "075548.408000", "075548.411000", "075548.415000", "075548.419000", "075548.423000", "075548.427000", "075548.431000", "075548.435000", "075548.439000", "075548.443000", "075548.447000", "075548.451000", "075548.455000", "075548.459000", "075548.463000", "075548.467000", "075548.471000", "075548.475000", "075548.479000", "075628.340000", "075628.345000", "075628.348000", "075628.352000", "075628.359000", "075628.363000", "075628.367000", "075628.371000", "075628.375000", "075628.379000", "075628.383000", "075628.386000", "075628.390000", "075628.395000", "075628.400000", "075628.404000", "075628.408000", "075628.412000", "075628.416000", "075628.420000", "075628.424000", "075628.428000", "075628.432000", "075628.436000", "075628.440000", "075628.443000", "075628.447000", "075628.451000", "075628.455000", "075628.459000", "075628.463000", "075628.467000", "075628.471000", "075628.475000", "075708.340000", "075708.345000", "075708.349000", "075708.353000", "075708.356000", "075708.360000", "075708.364000", "075708.369000", "075708.373000", "075708.376000", "075708.380000", "075708.384000", "075708.388000", "075708.392000", "075708.396000", "075708.401000", "075708.404000", "075708.408000", "075708.423000", "075708.428000", "075708.432000", "075708.435000", "075708.439000", "075708.443000", "075708.447000", "075708.452000", "075708.456000", "075708.460000", "075708.464000", "075708.468000", "075708.472000", "075708.476000", "075708.480000", "075708.484000", "075708.488000", "075748.341000", "075748.346000", "075748.350000", "075748.353000", "075748.357000", "075748.361000", "075748.365000", "075748.369000", "075748.373000", "075748.377000", "075748.381000", "075748.385000", "075748.389000", "075748.393000", "075748.397000", "075748.401000", "075748.405000", "075748.410000", "075748.415000", "075748.419000", "075748.423000", "075748.427000", "075748.431000", "075748.435000", "075748.440000", "075748.444000", "075748.448000", "075748.452000", "075748.456000", "075748.460000", "075748.464000", "075748.468000", "075748.472000", "075748.476000", "075828.339000", "075828.343000", "075828.347000", "075828.351000", "075828.355000", "075828.359000", "075828.363000", "075828.367000", "075828.371000", "075828.375000", "075828.379000", "075828.383000", "075828.388000", "075828.391000", "075828.395000", "075828.399000", "075828.403000", "075828.407000", "075828.411000", "075828.415000", "075828.419000", "075828.423000", "075828.427000", "075828.431000", "075828.435000", "075828.439000", "075828.443000", "075828.447000", "075828.451000", "075828.455000", "075828.459000", "075828.463000", "075828.467000", "075828.471000", "075908.339000", "075908.343000", "075908.348000", "075908.352000", "075908.355000", "075908.359000", "075908.364000", "075908.367000", "075908.371000", "075908.375000", "075908.379000", "075908.383000", "075908.387000", "075908.391000", "075908.395000", "075908.399000", "075908.403000", "075908.407000", "075908.411000", "075908.415000", "075908.419000", "075908.423000", "075908.427000", "075908.431000", "075908.435000", "075908.439000", "075908.443000", "075908.447000", "075908.451000", "075908.455000", "075908.459000", "075908.463000", "075908.467000", "075908.471000", "075908.475000", "075948.341000", "075948.345000", "075948.349000", "075948.357000", "075948.361000", "075948.365000", "075948.369000", "075948.373000", "075948.377000", "075948.381000", "075948.385000", "075948.388000", "075948.392000", "075948.409000", "075948.413000", "075948.417000", "075948.421000", "075948.425000", "075948.429000", "075948.433000", "075948.437000", "075948.441000", "075948.445000", "075948.449000", "075948.453000", "075948.457000", "075948.461000", "075948.465000", "075948.469000", "075948.473000", "075948.477000", "075948.481000", "075948.484000", "075948.489000", "080028.340000", "080028.344000", "080028.348000", "080028.357000", "080028.361000", "080028.365000", "080028.369000", "080028.373000", "080028.377000", "080028.381000", "080028.385000", "080028.389000", "080028.393000", "080028.397000", "080028.401000", "080028.405000", "080028.409000", "080028.413000", "080028.417000", "080028.421000", "080028.425000", "080028.429000", "080028.433000", "080028.437000", "080028.441000", "080028.445000", "080028.450000", "080028.454000", "080028.458000", "080028.462000", "080028.466000", "080028.470000", "080028.474000", "080028.478000", "080028.497000", "080108.342000", "080108.347000", "080108.351000", "080108.355000", "080108.359000", "080108.363000", "080108.367000", "080108.371000", "080108.375000", "080108.379000", "080108.383000", "080108.387000", "080108.391000", "080108.395000", "080108.399000", "080108.403000", "080108.410000", "080108.414000", "080108.419000", "080108.423000", "080108.427000", "080108.432000", "080108.436000", "080108.440000", "080108.444000", "080108.448000", "080108.452000", "080108.456000", "080108.460000", "080108.464000", "080108.468000", "080108.472000", "080108.476000", "080108.479000", "080140.868000", "080140.872000", "080140.876000", "080140.880000", "080140.884000", "080140.887000", "080140.891000", "080140.894000", "080140.898000", "080140.902000", "080140.906000", "080140.909000", "080140.913000", "080140.917000", "080140.922000", "080140.925000", "080140.929000", "080140.933000", "080140.937000", "080140.942000", "080140.946000", "080140.950000", "080140.954000", "080140.958000", "080140.961000", "080140.966000", "080140.970000", "080140.974000", "080140.978000"], "InstanceCreationTime": ["075448.417000", "075448.422000", "075448.426000", "075448.430000", "075448.433000", "075448.437000", "075448.441000", "075448.445000", "075448.449000", "075448.452000", "075448.456000", "075448.460000", "075448.465000", "075448.469000", "075448.472000", "075448.476000", "075448.481000", "075448.484000", "075448.488000", "075448.492000", "075448.496000", "075448.500000", "075448.504000", "075448.509000", "075448.513000", "075448.517000", "075448.521000", "075508.341000", "075508.345000", "075508.349000", "075508.354000", "075508.358000", "075508.362000", "075508.366000", "075508.370000", "075508.378000", "075508.382000", "075508.386000", "075508.390000", "075508.394000", "075508.398000", "075508.402000", "075508.405000", "075508.409000", "075508.413000", "075508.417000", "075508.421000", "075548.339000", "075548.344000", "075548.348000", "075548.352000", "075548.356000", "075548.360000", "075548.363000", "075548.367000", "075548.372000", "075548.376000", "075548.379000", "075548.383000", "075548.387000", "075548.391000", "075548.395000", "075548.400000", "075548.404000", "075548.408000", "075548.411000", "075548.415000", "075548.419000", "075548.423000", "075548.427000", "075548.431000", "075548.435000", "075548.439000", "075548.443000", "075548.447000", "075548.451000", "075548.455000", "075548.459000", "075548.463000", "075548.467000", "075548.471000", "075548.475000", "075548.479000", "075628.340000", "075628.345000", "075628.348000", "075628.352000", "075628.359000", "075628.363000", "075628.367000", "075628.371000", "075628.375000", "075628.379000", "075628.383000", "075628.386000", "075628.390000", "075628.395000", "075628.400000", "075628.404000", "075628.408000", "075628.412000", "075628.416000", "075628.420000", "075628.424000", "075628.428000", "075628.432000", "075628.436000", "075628.440000", "075628.443000", "075628.447000", "075628.451000", "075628.455000", "075628.459000", "075628.463000", "075628.467000", "075628.471000", "075628.475000", "075708.340000", "075708.345000", "075708.349000", "075708.353000", "075708.356000", "075708.360000", "075708.364000", "075708.369000", "075708.373000", "075708.376000", "075708.380000", "075708.384000", "075708.388000", "075708.392000", "075708.396000", "075708.401000", "075708.404000", "075708.408000", "075708.423000", "075708.428000", "075708.432000", "075708.435000", "075708.439000", "075708.443000", "075708.447000", "075708.452000", "075708.456000", "075708.460000", "075708.464000", "075708.468000", "075708.472000", "075708.476000", "075708.480000", "075708.484000", "075708.488000", "075748.341000", "075748.346000", "075748.350000", "075748.353000", "075748.357000", "075748.361000", "075748.365000", "075748.369000", "075748.373000", "075748.377000", "075748.381000", "075748.385000", "075748.389000", "075748.393000", "075748.397000", "075748.401000", "075748.405000", "075748.410000", "075748.415000", "075748.419000", "075748.423000", "075748.427000", "075748.431000", "075748.435000", "075748.440000", "075748.444000", "075748.448000", "075748.452000", "075748.456000", "075748.460000", "075748.464000", "075748.468000", "075748.472000", "075748.476000", "075828.339000", "075828.343000", "075828.347000", "075828.351000", "075828.355000", "075828.359000", "075828.363000", "075828.367000", "075828.371000", "075828.375000", "075828.379000", "075828.383000", "075828.388000", "075828.391000", "075828.395000", "075828.399000", "075828.403000", "075828.407000", "075828.411000", "075828.415000", "075828.419000", "075828.423000", "075828.427000", "075828.431000", "075828.435000", "075828.439000", "075828.443000", "075828.447000", "075828.451000", "075828.455000", "075828.459000", "075828.463000", "075828.467000", "075828.471000", "075908.339000", "075908.343000", "075908.348000", "075908.352000", "075908.355000", "075908.359000", "075908.364000", "075908.367000", "075908.371000", "075908.375000", "075908.379000", "075908.383000", "075908.387000", "075908.391000", "075908.395000", "075908.399000", "075908.403000", "075908.407000", "075908.411000", "075908.415000", "075908.419000", "075908.423000", "075908.427000", "075908.431000", "075908.435000", "075908.439000", "075908.443000", "075908.447000", "075908.451000", "075908.455000", "075908.459000", "075908.463000", "075908.467000", "075908.471000", "075908.475000", "075948.341000", "075948.345000", "075948.349000", "075948.357000", "075948.361000", "075948.365000", "075948.369000", "075948.373000", "075948.377000", "075948.381000", "075948.385000", "075948.388000", "075948.392000", "075948.409000", "075948.413000", "075948.417000", "075948.421000", "075948.425000", "075948.429000", "075948.433000", "075948.437000", "075948.441000", "075948.445000", "075948.449000", "075948.453000", "075948.457000", "075948.461000", "075948.465000", "075948.469000", "075948.473000", "075948.477000", "075948.481000", "075948.484000", "075948.489000", "080028.340000", "080028.344000", "080028.348000", "080028.357000", "080028.361000", "080028.365000", "080028.369000", "080028.373000", "080028.377000", "080028.381000", "080028.385000", "080028.389000", "080028.393000", "080028.397000", "080028.401000", "080028.405000", "080028.409000", "080028.413000", "080028.417000", "080028.421000", "080028.425000", "080028.429000", "080028.433000", "080028.437000", "080028.441000", "080028.445000", "080028.450000", "080028.454000", "080028.458000", "080028.462000", "080028.466000", "080028.470000", "080028.474000", "080028.478000", "080028.497000", "080108.342000", "080108.347000", "080108.351000", "080108.355000", "080108.359000", "080108.363000", "080108.367000", "080108.371000", "080108.375000", "080108.379000", "080108.383000", "080108.387000", "080108.391000", "080108.395000", "080108.399000", "080108.403000", "080108.410000", "080108.414000", "080108.419000", "080108.423000", "080108.427000", "080108.432000", "080108.436000", "080108.440000", "080108.444000", "080108.448000", "080108.452000", "080108.456000", "080108.460000", "080108.464000", "080108.468000", "080108.472000", "080108.476000", "080108.479000", "080140.868000", "080140.872000", "080140.876000", "080140.880000", "080140.884000", "080140.887000", "080140.891000", "080140.894000", "080140.898000", "080140.902000", "080140.906000", "080140.909000", "080140.913000", "080140.917000", "080140.922000", "080140.925000", "080140.929000", "080140.933000", "080140.937000", "080140.942000", "080140.946000", "080140.950000", "080140.954000", "080140.958000", "080140.961000", "080140.966000", "080140.970000", "080140.974000", "080140.978000"], "InstanceNumber": [1, 2, 3, 4, 5, 6, 7, 8, 9, 10, 11, 12, 13, 14, 15, 16, 17, 18, 19, 20, 21, 22, 23, 24, 25, 26, 27, 28, 29, 30, 31, 32, 33, 34, 35, 36, 37, 38, 39, 40, 41, 42, 43, 44, 45, 46, 47, 48, 49, 50, 51, 52, 53, 54, 55, 56, 57, 58, 59, 60, 61, 62, 63, 64, 65, 66, 67, 68, 69, 70, 71, 72, 73, 74, 75, 76, 77, 78, 79, 80, 81, 82, 83, 84, 85, 86, 87, 88, 89, 90, 91, 92, 93, 94, 95, 96, 97, 98, 99, 100, 101, 102, 103, 104, 105, 106, 107, 108, 109, 110, 111, 112, 113, 114, 115, 116, 117, 118, 119, 120, 121, 122, 123, 124, 125, 126, 127, 128, 129, 130, 131, 132, 133, 134, 135, 136, 137, 138, 139, 140, 141, 142, 143, 144, 145, 146, 147, 148, 149, 150, 151, 152, 153, 154, 155, 156, 157, 158, 159, 160, 161, 162, 163, 164, 165, 166, 167, 168, 169, 170, 171, 172, 173, 174, 175, 176, 177, 178, 179, 180, 181, 182, 183, 184, 185, 186, 187, 188, 189, 190, 191, 192, 193, 194, 195, 196, 197, 198, 199, 200, 201, 202, 203, 204, 205, 206, 207, 208, 209, 210, 211, 212, 213, 214, 215, 216, 217, 218, 219, 220, 221, 222, 223, 224, 225, 226, 227, 228, 229, 230, 231, 232, 233, 234, 235, 236, 237, 238, 239, 240, 241, 242, 243, 244, 245, 246, 247, 248, 249, 250, 251, 252, 253, 254, 255, 256, 257, 258, 259, 260, 261, 262, 263, 264, 265, 266, 267, 268, 269, 270, 271, 272, 273, 274, 275, 276, 277, 278, 279, 280, 281, 282, 283, 284, 285, 286, 287, 288, 289, 290, 291, 292, 293, 294, 295, 296, 297, 298, 299, 300, 301, 302, 303, 304, 305, 306, 307, 308, 309, 310, 311, 312, 313, 314, 315, 316, 317, 318, 319, 320, 321, 322, 323, 324, 325, 326, 327, 328, 329, 330, 331, 332, 333, 334, 335, 336, 337, 338, 339, 340, 341, 342, 343, 344, 345, 346, 347, 348, 349, 350, 351, 352, 353, 354, 355, 356, 357, 358, 359, 360, 361, 362, 363, 364, 365, 366, 367, 368, 369, 370, 371, 372, 373, 374, 375, 376, 377, 378, 379, 380, 381, 382, 383, 384, 385, 386, 387], "LargestImagePixelValue": [39289, 54001, 31451, 41598, 34547, 36156, 44021, 43816, 56052, 41826, 50173, 40330, 41946, 45630, 44256, 37600, 37923, 56521, 40625, 42718, 41464, 34342, 45339, 35906, 44031, 37002, 37224, 49650, 33430, 50104, 32436, 43193, 34488, 36320, 57461, 39013, 37053, 33712, 47793, 37719, 45928, 50875, 46121, 52007, 38141, 46676, 43410, 50055, 51167, 45820, 49307, 32512, 34670, 51075, 38210, 49707, 37386, 42844, 32292, 34810, 40661, 34214, 51390, 36835, 38406, 32919, 50806, 41881, 37590, 45920, 43279, 33725, 34639, 58888, 40658, 48796, 37220, 45387, 34787, 35991, 49481, 36794, 51095, 35874, 42371, 31491, 45823, 33941, 44351, 33975, 37560, 51978, 36543, 36987, 48114, 50914, 41426, 45261, 31481, 36709, 34075, 40407, 58332, 41050, 56959, 42457, 33856, 41506, 59945, 45883, 48419, 43408, 50865, 41201, 51931, 44611, 44072, 38349, 47224, 34276, 38613, 35706, 39568, 58725, 35531, 41960, 34025, 36385, 40448, 35142, 37618, 59388, 42006, 54060, 40708, 58881, 41577, 50527, 40939, 49550, 37620, 50608, 38575, 56471, 45448, 35292, 37403, 33396, 31750, 32342, 36973, 31492, 52427, 35819, 40998, 36114, 47343, 40084, 48778, 32867, 47802, 37436, 31326, 40301, 58523, 47332, 48380, 41962, 57336, 32838, 55772, 42368, 48321, 35623, 41495, 50020, 33732, 51747, 38031, 43894, 39999, 50175, 30857, 46397, 38690, 37396, 55384, 33256, 58278, 30043, 39049, 35092, 31589, 48568, 3