{"AcquisitionMatrixPE": 96, "AcquisitionNumber": 1, "AcquisitionTime": "07:46:34.377500", "BandwidthPerPixelPhaseEncode": 33.602, "BaseResolution": 96, "BodyPartExamined": "BRAIN", "ConsistencyInfo": "N4_VD13A_LATEST_20120616", "ConversionSoftware": "dcm2niix", "ConversionSoftwareVersion": "v1.0.20210317", "DerivedVendorReportedEchoSpacing": 0.000620003, "DeviceSerialNumber": "45239", "DwellTime": 2.6e-06, "EchoTime": 0.03, "EchoTrainLength": 47, "EffectiveEchoSpacing": 0.000310001, "FlipAngle": 63, "ImageComments": "Unaliased MB4/PE3", "ImageOrientationPatientDICOM": [0.999983, 0.00471668, 0.00333749, -0.00244343, 0.868623, -0.495468], "ImageType": ["ORIGINAL", "PRIMARY", "M", "ND", "NORM", "MOSAIC"], "ImagingFrequency": 123.191, "InPlanePhaseEncodingDirectionDICOM": "COL", "InstitutionAddress": "E 24th St. 100,Austin,Southmiddle,US,78712", "InstitutionName": "Univ of Texas at Austin", "InstitutionalDepartmentName": "IRC", "MRAcquisitionType": "2D", "MagneticFieldStrength": 3, "Manufacturer": "Siemens", "ManufacturersModelName": "Skyra", "Modality": "MR", "MultibandAccelerationFactor": 4, "ParallelReductionFactorInPlane": 2, "PartialFourier": 1, "PatientPosition": "HFS", "PercentPhaseFOV": 100, "PercentSampling": 100, "PhaseEncodingDirection": "j-", "PhaseEncodingSteps": 95, "PhaseResolution": 1, "PixelBandwidth": 2005, "ProcedureStepDescription": "Poldrack2^self-scanning", "ProtocolName": "superloc", "PulseSequenceDetails": "%CustomerSeq%\\cmrr_mbep2d_bold", "ReceiveCoilActiveElements": "HEA;HEP", "ReceiveCoilName": "Head_32", "ReconMatrixPE": 96, "RefLinesPE": 48, "RepetitionTime": 1.16, "SAR": 0.113022, "ScanOptions": "FS", "ScanningSequence": "EP", "SequenceName": "epfid2d1_96", "SequenceVariant": "SK", "SeriesDescription": "superloc", "SeriesNumber": 8, "ShimSetting": [-2977, 8277, -15342, -681, 49, -506, 329, 125], "SliceThickness": 2, "SliceTiming": [0, 0.4975, 0.9975, 0.355, 0.855, 0.2125, 0.7125, 0.07, 0.57, 1.0675, 0.4275, 0.925, 0.285, 0.7825, 0.1425, 0.64, 0, 0.4975, 0.9975, 0.355, 0.855, 0.2125, 0.7125, 0.07, 0.57, 1.0675, 0.4275, 0.925, 0.285, 0.7825, 0.1425, 0.64, 0, 0.4975, 0.9975, 0.355, 0.855, 0.2125, 0.7125, 0.07, 0.57, 1.0675, 0.4275, 0.925, 0.285, 0.7825, 0.1425, 0.64, 0, 0.4975, 0.9975, 0.355, 0.855, 0.2125, 0.7125, 0.07, 0.57, 1.0675, 0.4275, 0.925, 0.285, 0.7825, 0.1425, 0.64], "SoftwareVersions": "syngo MR D13", "SpacingBetweenSlices": 2.4, "StationName": "AWP45239", "TaskName": "Sentence processing task", "TotalReadoutTime": 0.0294501, "TxRefAmp": 336.475, "WipMemBlock": "da337660-d0f0-4502-bab1-318d3907310e||Sequence: vd13a/R010 r/fd129fc; Dec 13 2013 16:14:27 by eja", "dcmmeta_affine": [[-2.3957931995391846, -0.005854062736034393, 0.012566356919705868, 113.66757202148438], [-0.011300375685095787, 2.0810749530792236, -1.1890844106674194, -80.86116027832031], [0.007996064610779285, 1.1870594024658203, 2.0846869945526123, -82.24976348876953], [0.0, 0.0, 0.0, 1.0]], "dcmmeta_reorient_transform": [[0.0, -1.0, 0.0, 95.0], [1.0, 0.0, 0.0, 0.0], [0.0, 0.0, 1.0, 0.0], [0.0, 0.0, 0.0, 1.0]], "dcmmeta_shape": [96, 96, 64, 326], "dcmmeta_slice_dim": 2, "dcmmeta_version": 0.6, "global": {"const": {"AcquisitionMatrix": [96, 0, 0, 96], "AngioFlag": "N", "BitsAllocated": 16, "BitsStored": 16, "BodyPartExamined": "BRAIN", "Columns": 768, "DeidentificationMethodCodeSequence": [{"CodeMeaning": "XNAT Edit Script", "CodeValue": "93", "CodingSchemeDesignator": "XNAT", "CodingSchemeVersion": "0.1"}], "EchoNumbers": 1, "EchoTime": 30.0, "EchoTrainLength": 47, "FlipAngle": 63.0, "HighBit": 15, "ImageOrientationPatient": [0.99998330691992, 0.00471667857852, 0.00333748778179, -0.0024434350084, 0.86862259179097, -0.495468286226], "ImagePositionPatient": [-916.13100284083, -819.87904254794, 426.6861599278], "ImageType": ["ORIGINAL", "PRIMARY", "M", "ND", "NORM", "MOSAIC"], "ImagedNucleus": "1H", "ImagingFrequency": 123.191083, "InPlanePhaseEncodingDirection": "COL", "MRAcquisitionType": "2D", "MagneticFieldStrength": 3.0, "Manufacturer": "SIEMENS", "ManufacturerModelName": "Skyra", "Modality": "MR", "NumberOfAverages": 1.0, "NumberOfPhaseEncodingSteps": 95, "PercentPhaseFieldOfView": 100.0, "PercentSampling": 100.0, "PerformedProcedureStepStartTime": "071417.917000", "PhotometricInterpretation": "MONOCHROME2", "PixelBandwidth": 2005.0, "PixelRepresentation": 0, "PixelSpacing": [2.3958332538605, 2.3958332538605], "ProtocolName": "superloc", "RepetitionTime": 1160.0, "Rows": 768, "SAR": 0.11302233169218, "SamplesPerPixel": 1, "ScanOptions": "FS", "ScanningSequence": "EP", "SequenceName": "epfid2d1_96", "SequenceVariant": "SK", "SeriesDescription": "superloc", "SeriesNumber": 8, "SeriesTime": "074720.915000", "SliceLocation": -30.785782859844, "SliceThickness": 2.0, "SmallestImagePixelValue": 0, "SoftwareVersions": "syngo MR D13", "SpacingBetweenSlices": 2.3999999750538, "SpecificCharacterSet": "ISO_IR 100", "StudyID": "1", "StudyTime": "071417.813000", "TransmitCoilName": "Body", "VariableFlipAngleFlag": "N", "WindowCenterWidthExplanation": "Algo1", "dBdt": 0.0}, "slices": {}}, "time": {"samples": {"AcquisitionNumber": [1, 2, 3, 4, 5, 6, 7, 8, 9, 10, 11, 12, 13, 14, 15, 16, 17, 18, 19, 20, 21, 22, 23, 24, 25, 26, 27, 28, 29, 30, 31, 32, 33, 34, 35, 36, 37, 38, 39, 40, 41, 42, 43, 44, 45, 46, 47, 48, 49, 50, 51, 52, 53, 54, 55, 56, 57, 58, 59, 60, 61, 62, 63, 64, 65, 66, 67, 68, 69, 70, 71, 72, 73, 74, 75, 76, 77, 78, 79, 80, 81, 82, 83, 84, 85, 86, 87, 88, 89, 90, 91, 92, 93, 94, 95, 96, 97, 98, 99, 100, 101, 102, 103, 104, 105, 106, 107, 108, 109, 110, 111, 112, 113, 114, 115, 116, 117, 118, 119, 120, 121, 122, 123, 124, 125, 126, 127, 128, 129, 130, 131, 132, 133, 134, 135, 136, 137, 138, 139, 140, 141, 142, 143, 144, 145, 146, 147, 148, 149, 150, 151, 152, 153, 154, 155, 156, 157, 158, 159, 160, 161, 162, 163, 164, 165, 166, 167, 168, 169, 170, 171, 172, 173, 174, 175, 176, 177, 178, 179, 180, 181, 182, 183, 184, 185, 186, 187, 188, 189, 190, 191, 192, 193, 194, 195, 196, 197, 198, 199, 200, 201, 202, 203, 204, 205, 206, 207, 208, 209, 210, 211, 212, 213, 214, 215, 216, 217, 218, 219, 220, 221, 222, 223, 224, 225, 226, 227, 228, 229, 230, 231, 232, 233, 234, 235, 236, 237, 238, 239, 240, 241, 242, 243, 244, 245, 246, 247, 248, 249, 250, 251, 252, 253, 254, 255, 256, 257, 258, 259, 260, 261, 262, 263, 264, 265, 266, 267, 268, 269, 270, 271, 272, 273, 274, 275, 276, 277, 278, 279, 280, 281, 282, 283, 284, 285, 286, 287, 288, 289, 290, 291, 292, 293, 294, 295, 296, 297, 298, 299, 300, 301, 302, 303, 304, 305, 306, 307, 308, 309, 310, 311, 312, 313, 314, 315, 316, 317, 318, 319, 320, 321, 322, 323, 324, 325, 326], "AcquisitionTime": ["074634.377500", "074641.317500", "074642.477500", "074643.637500", "074644.797500", "074645.957500", "074647.117500", "074648.277500", "074649.437500", "074650.597500", "074651.757500", "074652.917500", "074654.077500", "074655.237500", "074656.397500", "074657.557500", "074658.717500", "074659.877500", "074701.037500", "074702.197500", "074703.357500", "074704.517500", "074705.677500", "074706.837500", "074707.997500", "074709.157500", "074710.317500", "074711.477500", "074712.637500", "074713.797500", "074714.957500", "074716.117500", "074717.277500", "074718.437500", "074719.597500", "074720.757500", "074721.917500", "074723.077500", "074724.237500", "074725.397500", "074726.557500", "074727.717500", "074728.877500", "074730.037500", "074731.197500", "074732.357500", "074733.517500", "074734.677500", "074735.837500", "074736.997500", "074738.157500", "074739.317500", "074740.477500", "074741.637500", "074742.797500", "074743.957500", "074745.117500", "074746.277500", "074747.437500", "074748.597500", "074749.757500", "074750.917500", "074752.077500", "074753.237500", "074754.397500", "074755.557500", "074756.717500", "074757.877500", "074759.037500", "074800.197500", "074801.357500", "074802.517500", "074803.677500", "074804.837500", "074805.997500", "074807.157500", "074808.317500", "074809.477500", "074810.637500", "074811.797500", "074812.957500", "074814.117500", "074815.277500", "074816.437500", "074817.597500", "074818.757500", "074819.917500", "074821.077500", "074822.237500", "074823.397500", "074824.557500", "074825.717500", "074826.877500", "074828.037500", "074829.197500", "074830.357500", "074831.517500", "074832.677500", "074833.837500", "074834.997500", "074836.157500", "074837.317500", "074838.477500", "074839.637500", "074840.797500", "074841.957500", "074843.117500", "074844.277500", "074845.437500", "074846.597500", "074847.757500", "074848.917500", "074850.077500", "074851.237500", "074852.397500", "074853.557500", "074854.717500", "074855.877500", "074857.037500", "074858.197500", "074859.357500", "074900.517500", "074901.677500", "074902.837500", "074903.997500", "074905.157500", "074906.317500", "074907.477500", "074908.637500", "074909.797500", "074910.957500", "074912.117500", "074913.277500", "074914.437500", "074915.597500", "074916.757500", "074917.917500", "074919.077500", "074920.237500", "074921.397500", "074922.557500", "074923.717500", "074924.877500", "074926.037500", "074927.197500", "074928.357500", "074929.517500", "074930.677500", "074931.837500", "074932.997500", "074934.157500", "074935.317500", "074936.477500", "074937.637500", "074938.797500", "074939.957500", "074941.117500", "074942.277500", "074943.437500", "074944.597500", "074945.757500", "074946.917500", "074948.077500", "074949.237500", "074950.397500", "074951.557500", "074952.717500", "074953.877500", "074955.037500", "074956.197500", "074957.357500", "074958.517500", "074959.677500", "075000.837500", "075001.997500", "075003.157500", "075004.317500", "075005.477500", "075006.637500", "075007.797500", "075008.957500", "075010.117500", "075011.277500", "075012.437500", "075013.597500", "075014.757500", "075015.917500", "075017.077500", "075018.237500", "075019.397500", "075020.560000", "075021.720000", "075022.880000", "075024.040000", "075025.200000", "075026.360000", "075027.520000", "075028.680000", "075029.840000", "075031.000000", "075032.160000", "075033.320000", "075034.480000", "075035.640000", "075036.800000", "075037.960000", "075039.120000", "075040.280000", "075041.440000", "075042.600000", "075043.760000", "075044.920000", "075046.080000", "075047.240000", "075048.400000", "075049.560000", "075050.720000", "075051.880000", "075053.040000", "075054.200000", "075055.360000", "075056.520000", "075057.680000", "075058.840000", "075100.000000", "075101.160000", "075102.320000", "075103.480000", "075104.640000", "075105.800000", "075106.960000", "075108.120000", "075109.280000", "075110.440000", "075111.600000", "075112.760000", "075113.920000", "075115.080000", "075116.240000", "075117.400000", "075118.560000", "075119.720000", "075120.880000", "075122.040000", "075123.200000", "075124.360000", "075125.520000", "075126.680000", "075127.840000", "075129.000000", "075130.160000", "075131.320000", "075132.480000", "075133.640000", "075134.800000", "075135.960000", "075137.120000", "075138.280000", "075139.440000", "075140.600000", "075141.760000", "075142.920000", "075144.080000", "075145.240000", "075146.400000", "075147.560000", "075148.720000", "075149.880000", "075151.040000", "075152.200000", "075153.360000", "075154.520000", "075155.680000", "075156.840000", "075158.000000", "075159.160000", "075200.320000", "075201.480000", "075202.640000", "075203.800000", "075204.960000", "075206.120000", "075207.280000", "075208.440000", "075209.600000", "075210.760000", "075211.920000", "075213.080000", "075214.240000", "075215.400000", "075216.560000", "075217.720000", "075218.880000", "075220.040000", "075221.200000", "075222.360000", "075223.520000", "075224.680000", "075225.840000", "075227.000000", "075228.160000", "075229.320000", "075230.480000", "075231.640000", "075232.800000", "075233.960000", "075235.120000", "075236.280000", "075237.440000", "075238.600000", "075239.760000", "075240.920000", "075242.080000", "075243.240000", "075244.400000", "075245.560000", "075246.720000", "075247.880000", "075249.040000", "075250.200000", "075251.360000", "075252.520000", "075253.680000", "075254.840000", "075256.000000", "075257.160000"], "ContentTime": ["074720.919000", "074720.923000", "074720.927000", "074720.931000", "074720.939000", "074720.943000", "074720.947000", "074720.952000", "074720.959000", "074720.963000", "074720.967000", "074720.971000", "074720.975000", "074720.979000", "074720.983000", "074720.987000", "074720.996000", "074721.000000", "074721.004000", "074721.008000", "074721.012000", "074721.016000", "074721.020000", "074721.024000", "074721.028000", "074721.033000", "074721.037000", "074721.041000", "074721.045000", "074721.049000", "074800.873000", "074800.878000", "074800.882000", "074800.886000", "074800.890000", "074800.894000", "074800.898000", "074800.902000", "074800.907000", "074800.911000", "074800.915000", "074800.919000", "074800.923000", "074800.927000", "074800.931000", "074800.935000", "074800.939000", "074800.943000", "074800.947000", "074800.951000", "074800.956000", "074800.960000", "074800.964000", "074800.968000", "074800.972000", "074800.975000", "074800.979000", "074800.983000", "074800.987000", "074800.991000", "074800.995000", "074800.999000", "074801.003000", "074801.007000", "074801.011000", "074801.014000", "074801.018000", "074801.022000", "074840.874000", "074840.878000", "074840.889000", "074840.893000", "074840.897000", "074840.901000", "074840.905000", "074840.909000", "074840.913000", "074840.917000", "074840.921000", "074840.925000", "074840.929000", "074840.933000", "074840.938000", "074840.942000", "074840.960000", "074840.963000", "074840.968000", "074840.971000", "074840.976000", "074840.983000", "074840.987000", "074840.991000", "074840.995000", "074841.000000", "074841.004000", "074841.008000", "074841.012000", "074841.016000", "074841.020000", "074841.024000", "074841.028000", "074841.032000", "074920.873000", "074920.877000", "074920.882000", "074920.886000", "074920.889000", "074920.893000", "074920.897000", "074920.901000", "074920.904000", "074920.909000", "074920.912000", "074920.916000", "074920.920000", "074920.925000", "074920.928000", "074920.932000", "074920.936000", "074920.940000", "074920.943000", "074920.947000", "074920.951000", "074920.955000", "074920.959000", "074920.963000", "074920.967000", "074920.971000", "074920.974000", "074920.978000", "074920.982000", "074920.986000", "074920.990000", "074920.994000", "074920.998000", "074921.003000", "074921.007000", "075000.873000", "075000.878000", "075000.882000", "075000.886000", "075000.890000", "075000.893000", "075000.898000", "075000.901000", "075000.905000", "075000.909000", "075000.913000", "075000.917000", "075000.921000", "075000.925000", "075000.929000", "075000.933000", "075000.936000", "075000.940000", "075000.944000", "075000.948000", "075000.952000", "075000.956000", "075000.960000", "075000.965000", "075000.968000", "075000.972000", "075000.976000", "075000.980000", "075000.984000", "075000.988000", "075000.992000", "075000.996000", "075000.999000", "075001.003000", "075040.873000", "075040.878000", "075040.893000", "075040.897000", "075040.901000", "075040.905000", "075040.909000", "075040.913000", "075040.916000", "075040.920000", "075040.925000", "075040.928000", "075040.932000", "075040.937000", "075040.941000", "075040.945000", "075040.948000", "075040.952000", "075040.956000", "075040.960000", "075040.964000", "075040.968000", "075040.972000", "075040.976000", "075040.980000", "075040.984000", "075040.988000", "075040.992000", "075040.996000", "075041.000000", "075041.005000", "075041.008000", "075041.012000", "075041.016000", "075041.020000", "075120.873000", "075120.878000", "075120.882000", "075120.886000", "075120.890000", "075120.894000", "075120.897000", "075120.902000", "075120.905000", "075120.909000", "075120.913000", "075120.917000", "075120.921000", "075120.925000", "075120.929000", "075120.933000", "075120.937000", "075120.941000", "075120.945000", "075120.949000", "075120.953000", "075120.957000", "075120.960000", "075120.965000", "075120.969000", "075120.973000", "075120.977000", "075120.981000", "075120.985000", "075120.989000", "075120.993000", "075120.997000", "075121.002000", "075121.007000", "075200.873000", "075200.878000", "075200.882000", "075200.891000", "075200.895000", "075200.899000", "075200.903000", "075200.907000", "075200.911000", "075200.915000", "075200.919000", "075200.923000", "075200.928000", "075200.931000", "075200.935000", "075200.939000", "075200.943000", "075200.947000", "075200.951000", "075200.955000", "075200.959000", "075200.963000", "075200.968000", "075200.972000", "075200.975000", "075200.979000", "075200.983000", "075200.987000", "075200.991000", "075200.995000", "075200.998000", "075201.004000", "075201.008000", "075201.012000", "075201.016000", "075240.874000", "075240.879000", "075240.883000", "075240.887000", "075240.891000", "075240.895000", "075240.899000", "075240.903000", "075240.907000", "075240.912000", "075240.916000", "075240.920000", "075240.924000", "075240.928000", "075240.931000", "075240.935000", "075240.940000", "075240.943000", "075240.947000", "075240.951000", "075240.955000", "075240.959000", "075240.963000", "075240.967000", "075240.971000", "075240.974000", "075240.978000", "075240.982000", "075240.986000", "075240.990000", "075240.994000", "075240.997000", "075241.002000", "075241.006000", "075259.635000", "075259.640000", "075259.644000", "075259.648000", "075259.652000", "075259.656000", "075259.660000", "075259.663000", "075259.668000", "075259.672000", "075259.676000", "075259.680000", "075259.684000", "075259.688000", "075259.692000", "075259.696000", "075259.700000"], "InstanceCreationTime": ["074720.919000", "074720.923000", "074720.927000", "074720.931000", "074720.939000", "074720.943000", "074720.947000", "074720.952000", "074720.959000", "074720.963000", "074720.967000", "074720.971000", "074720.975000", "074720.979000", "074720.983000", "074720.987000", "074720.996000", "074721.000000", "074721.004000", "074721.008000", "074721.012000", "074721.016000", "074721.020000", "074721.024000", "074721.028000", "074721.033000", "074721.037000", "074721.041000", "074721.045000", "074721.049000", "074800.873000", "074800.878000", "074800.882000", "074800.886000", "074800.890000", "074800.894000", "074800.898000", "074800.902000", "074800.907000", "074800.911000", "074800.915000", "074800.919000", "074800.923000", "074800.927000", "074800.931000", "074800.935000", "074800.939000", "074800.943000", "074800.947000", "074800.951000", "074800.956000", "074800.960000", "074800.964000", "074800.968000", "074800.972000", "074800.975000", "074800.979000", "074800.983000", "074800.987000", "074800.991000", "074800.995000", "074800.999000", "074801.003000", "074801.007000", "074801.011000", "074801.014000", "074801.018000", "074801.022000", "074840.874000", "074840.878000", "074840.889000", "074840.893000", "074840.897000", "074840.901000", "074840.905000", "074840.909000", "074840.913000", "074840.917000", "074840.921000", "074840.925000", "074840.929000", "074840.933000", "074840.938000", "074840.942000", "074840.960000", "074840.963000", "074840.968000", "074840.971000", "074840.976000", "074840.983000", "074840.987000", "074840.991000", "074840.995000", "074841.000000", "074841.004000", "074841.008000", "074841.012000", "074841.016000", "074841.020000", "074841.024000", "074841.028000", "074841.032000", "074920.873000", "074920.877000", "074920.882000", "074920.886000", "074920.889000", "074920.893000", "074920.897000", "074920.901000", "074920.904000", "074920.909000", "074920.912000", "074920.916000", "074920.920000", "074920.925000", "074920.928000", "074920.932000", "074920.936000", "074920.940000", "074920.943000", "074920.947000", "074920.951000", "074920.955000", "074920.959000", "074920.963000", "074920.967000", "074920.971000", "074920.974000", "074920.978000", "074920.982000", "074920.986000", "074920.990000", "074920.994000", "074920.998000", "074921.003000", "074921.007000", "075000.873000", "075000.878000", "075000.882000", "075000.886000", "075000.890000", "075000.893000", "075000.898000", "075000.901000", "075000.905000", "075000.909000", "075000.913000", "075000.917000", "075000.921000", "075000.925000", "075000.929000", "075000.933000", "075000.936000", "075000.940000", "075000.944000", "075000.948000", "075000.952000", "075000.956000", "075000.960000", "075000.965000", "075000.968000", "075000.972000", "075000.976000", "075000.980000", "075000.984000", "075000.988000", "075000.992000", "075000.996000", "075000.999000", "075001.003000", "075040.873000", "075040.878000", "075040.893000", "075040.897000", "075040.901000", "075040.905000", "075040.909000", "075040.913000", "075040.916000", "075040.920000", "075040.925000", "075040.928000", "075040.932000", "075040.937000", "075040.941000", "075040.945000", "075040.948000", "075040.952000", "075040.956000", "075040.960000", "075040.964000", "075040.968000", "075040.972000", "075040.976000", "075040.980000", "075040.984000", "075040.988000", "075040.992000", "075040.996000", "075041.000000", "075041.005000", "075041.008000", "075041.012000", "075041.016000", "075041.020000", "075120.873000", "075120.878000", "075120.882000", "075120.886000", "075120.890000", "075120.894000", "075120.897000", "075120.902000", "075120.905000", "075120.909000", "075120.913000", "075120.917000", "075120.921000", "075120.925000", "075120.929000", "075120.933000", "075120.937000", "075120.941000", "075120.945000", "075120.949000", "075120.953000", "075120.957000", "075120.960000", "075120.965000", "075120.969000", "075120.973000", "075120.977000", "075120.981000", "075120.985000", "075120.989000", "075120.993000", "075120.997000", "075121.002000", "075121.007000", "075200.873000", "075200.878000", "075200.882000", "075200.891000", "075200.895000", "075200.899000", "075200.903000", "075200.907000", "075200.911000", "075200.915000", "075200.919000", "075200.923000", "075200.928000", "075200.931000", "075200.935000", "075200.939000", "075200.943000", "075200.947000", "075200.951000", "075200.955000", "075200.959000", "075200.963000", "075200.968000", "075200.972000", "075200.975000", "075200.979000", "075200.983000", "075200.987000", "075200.991000", "075200.995000", "075200.998000", "075201.004000", "075201.008000", "075201.012000", "075201.016000", "075240.874000", "075240.879000", "075240.883000", "075240.887000", "075240.891000", "075240.895000", "075240.899000", "075240.903000", "075240.907000", "075240.912000", "075240.916000", "075240.920000", "075240.924000", "075240.928000", "075240.931000", "075240.935000", "075240.940000", "075240.943000", "075240.947000", "075240.951000", "075240.955000", "075240.959000", "075240.963000", "075240.967000", "075240.971000", "075240.974000", "075240.978000", "075240.982000", "075240.986000", "075240.990000", "075240.994000", "075240.997000", "075241.002000", "075241.006000", "075259.635000", "075259.640000", "075259.644000", "075259.648000", "075259.652000", "075259.656000", "075259.660000", "075259.663000", "075259.668000", "075259.672000", "075259.676000", "075259.680000", "075259.684000", "075259.688000", "075259.692000", "075259.696000", "075259.700000"], "InstanceNumber": [1, 2, 3, 4, 5, 6, 7, 8, 9, 10, 11, 12, 13, 14, 15, 16, 17, 18, 19, 20, 21, 22, 23, 24, 25, 26, 27, 28, 29, 30, 31, 32, 33, 34, 35, 36, 37, 38, 39, 40, 41, 42, 43, 44, 45, 46, 47, 48, 49, 50, 51, 52, 53, 54, 55, 56, 57, 58, 59, 60, 61, 62, 63, 64, 65, 66, 67, 68, 69, 70, 71, 72, 73, 74, 75, 76, 77, 78, 79, 80, 81, 82, 83, 84, 85, 86, 87, 88, 89, 90, 91, 92, 93, 94, 95, 96, 97, 98, 99, 100, 101, 102, 103, 104, 105, 106, 107, 108, 109, 110, 111, 112, 113, 114, 115, 116, 117, 118, 119, 120, 121, 122, 123, 124, 125, 126, 127, 128, 129, 130, 131, 132, 133, 134, 135, 136, 137, 138, 139, 140, 141, 142, 143, 144, 145, 146, 147, 148, 149, 150, 151, 152, 153, 154, 155, 156, 157, 158, 159, 160, 161, 162, 163, 164, 165, 166, 167, 168, 169, 170, 171, 172, 173, 174, 175, 176, 177, 178, 179, 180, 181, 182, 183, 184, 185, 186, 187, 188, 189, 190, 191, 192, 193, 194, 195, 196, 197, 198, 199, 200, 201, 202, 203, 204, 205, 206, 207, 208, 209, 210, 211, 212, 213, 214, 215, 216, 217, 218, 219, 220, 221, 222, 223, 224, 225, 226, 227, 228, 229, 230, 231, 232, 233, 234, 235, 236, 237, 238, 239, 240, 241, 242, 243, 244, 245, 246, 247, 248, 249, 250, 251, 252, 253, 254, 255, 256, 257, 258, 259, 260, 261, 262, 263, 264, 265, 266, 267, 268, 269, 270, 271, 272, 273, 274, 275, 276, 277, 278, 279, 280, 281, 282, 283, 284, 285, 286, 287, 288, 289, 290, 291, 292, 293, 294, 295, 296, 297, 298, 299, 300, 301, 302, 303, 304, 305, 306, 307, 308, 309, 310, 311, 312, 313, 314, 315, 316, 317, 318, 319, 320, 321, 322, 323, 324, 325, 326], "LargestImagePixelValue": [31537, 53754, 39068, 37551, 34859, 33201, 49753, 37119, 46265, 34143, 39099, 50593, 32317, 51114, 37750, 53581, 42430, 50467, 32616, 44019, 35693, 46336, 36107, 44248, 50924, 35960, 33818, 35339, 37914, 40253, 32205, 38648, 35723, 38851, 34023, 50581, 33879, 52056, 41774, 58305, 44665, 51105, 40772, 56666, 42556, 49637, 34635, 48038, 37876, 54154, 31955, 34453, 34335, 41246, 36270, 30347, 34276, 47342, 31245, 41995, 36327, 31720, 37481, 39206, 35295, 37705, 37205, 36304, 38329, 33567, 47357, 38045, 43432, 37142, 38349, 32172, 45677, 32364, 44857, 38150, 44975, 38398, 50380, 35228, 51198, 34025, 53114, 40255, 51780, 37604, 54515, 31996, 50452, 32909, 52970, 34251, 48833, 37929, 43485, 31954, 48228, 36049, 43236, 32111, 33433, 37467, 42856, 48596, 38892, 34997, 54792, 43115, 52454, 33811, 51022, 37752, 56517, 33160, 47261, 37464, 51840, 41532, 52900, 39444, 48590, 36440, 45051, 33373, 44216, 38826, 42263, 34201, 50350, 32387, 36420, 39999, 33494, 50085, 34459, 30427, 35217, 41752, 36878, 33051, 38060, 47434, 37144, 53880, 43105, 31871, 39481, 36223, 42473, 39938, 50950, 30130, 49498, 36554, 51244, 38987, 53813, 34884, 50394, 40275, 46686, 33107, 41818, 41373, 45427, 31986, 34767, 35064, 35479, 36724, 36115, 37004, 36334, 42945, 44588, 33135, 36375, 38993, 34995, 41638, 55066, 44256, 52880, 40698, 46959, 35383, 46337, 33426, 53736, 32074, 48508, 37182, 52538, 32022, 42241, 31021, 53055, 38200, 42869, 33124, 42330, 35298, 38645, 35546, 38399, 43096, 37255, 52001, 35466, 53131, 42120, 54011, 38654, 43968, 43579, 36375, 31885, 37037, 44175, 33914, 51639, 32374, 52947, 38846, 41198, 36430, 45247, 33011, 36249, 42716, 35003, 43077, 38412, 33143, 39562, 37199, 50153, 43787, 52700, 39518, 46212, 39288, 45880, 39787, 37212, 50347, 34169, 32242, 37360, 31802, 39418, 39222, 50045, 34254, 38234, 38802, 39215, 36520, 44593, 34670, 36274, 51981, 35046, 52424, 40517, 47435, 35419, 48481, 33467, 51048, 35245, 48317, 38057, 48487, 35873, 43931, 33792, 37512, 48237, 45972, 53698, 35920, 48285, 31927, 51002, 38256, 37897, 35158, 49051, 35653, 45531, 33139, 32957, 37853, 33679, 44817, 33064, 40016, 39595, 50989, 32766, 35182, 52273, 40319, 56744, 32287, 43368, 33249, 52900, 42870, 51439, 38629, 47479, 38705, 54000, 46134, 35813, 47527, 36402, 50456, 36628, 54071], "WindowCenter": [11212.0, 11241.0, 11215.0, 11197.0, 11196.0, 11186.0, 11218.0, 11190.0, 11206.0, 11172.0, 11191.0, 11220.0, 11179.0, 11221.0, 11194.0, 11213.0, 11202.0, 11201.0, 11164.0, 11190.0, 11165.0, 11187.0, 11182.0, 11219.0, 11219.0, 11187.0, 11171.0, 11179.0, 11180.0, 11188.0, 11158.0, 11186.0, 11189.0, 11205.0, 11190.0, 11230.0, 11197.0, 11226.0, 11211.0, 11226.0, 11197.0, 11207.0, 11174.0, 11206.0, 11178.0, 11188.0, 11159.0, 11183.0, 11159.0, 11185.0, 11138.0, 11143.0, 11136.0, 11164.0, 11161.0, 11144.0, 11160.0, 11184.0, 11144.0, 11179.0, 11168.0, 11161.0, 11179.0, 11180.0, 11171.0, 11179.0, 11179.0, 11180.0, 11179.0, 11168.0, 11209.0, 11183.0, 11188.0, 11171.0, 11173.0, 11158.0, 11205.0, 11167.0, 11206.0, 11190.0, 11197.0, 11190.0, 11218.0, 11183.0, 11216.0, 11169.0, 11207.0, 11179.0, 11202.0, 11174.0, 11205.0, 11149.0, 11192.0, 11150.0, 11194.0, 11154.0, 11195.0, 11165.0, 11185.0, 11158.0, 11200.0, 11177.0, 11192.0, 11173.0, 11176.0, 11190.0, 11201.0, 11210.0, 11187.0, 11166.0, 11207.0, 11187.0, 11209.0, 11168.0, 11203.0, 11179.0, 11210.0, 11162.0, 11204.0, 11179.0, 11212.0, 11192.0, 11213.0, 11189.0, 11197.0, 11168.0, 11190.0, 11162.0, 11195.0, 11183.0, 11182.0, 11168.0, 11200.0, 11160.0, 11176.0, 11177.0, 11163.0, 11204.0, 11170.0, 11161.0, 11180.0, 11195.0, 11187.0, 11170.0, 11192.0, 11200.0, 11183.0, 11212.0, 11186.0, 11157.0, 11175.0, 11162.0, 11187.0, 11180.0, 11211.0, 11162.0, 11212.0, 11188.0, 11214.0, 11191.0, 11213.0, 11172.0, 11202.0, 11175.0, 11185.0, 11156.0, 11180.0, 11175.0, 11184.0, 11150.0, 11157.0, 11155.0, 11158.0, 11163.0, 11169.0, 11165.0, 11163.0, 11181.0, 11184.0, 11171.0, 11185.0, 11188.0, 11206.0, 11214.0, 11242.0, 11215.0, 11209.0, 11185.0, 11187.0, 11158.0, 11188.0, 11161.0, 11206.0, 11160.0, 11196.0, 11175.0, 11205.0, 11159.0, 11192.0, 11162.0, 11211.0, 11178.0, 11191.0, 11166.0, 11194.0, 11179.0, 11190.0, 11183.0, 11192.0, 11204.0, 11183.0, 11225.0, 11186.0, 11229.0, 11196.0, 11205.0, 11176.0, 11190.0, 11184.0, 11173.0, 11159.0, 11166.0, 11189.0, 11163.0, 11205.0, 11159.0, 11205.0, 11173.0, 11177.0, 11171.0, 11193.0, 11161.0, 11170.0, 11187.0, 11166.0, 11188.0, 11178.0, 11176.0, 11198.0, 11187.0, 11210.0, 11203.0, 11214.0, 11179.0, 11188.0, 11173.0, 11176.0, 11165.0, 11163.0, 11188.0, 11156.0, 11157.0, 11172.0, 11157.0, 11190.0, 11193.0, 11212.0, 11175.0, 11180.0, 11172.0, 11182.0, 11177.0, 11204.0, 11184.0, 11175.0, 11208.0, 11172.0, 11207.0, 11182.0, 11196.0, 11170.0, 11196.0, 11174.0, 11209.0, 11166.0, 11198.0, 11176.0, 11196.0, 11174.0, 11191.0, 11164.0, 11183.0, 11204.0, 11198.0, 11211.0, 11172.0, 11197.0, 11157.0, 11203.0, 11184.0, 11180.0, 11177.0, 11202.0, 11178.0, 11209.0, 11171.0, 11175.0, 11193.0, 11181.0, 11206.0, 11174.0, 11208.0, 11212.0, 11222.0, 11174.0, 11179.0, 11212.0, 11188.0, 11215.0, 11170.0, 11205.0, 11179