{
    "AcquisitionMatrixPE": 96,
    "AcquisitionNumber": 1,
    "AcquisitionTime": "17:17:34.672500",
    "BandwidthPerPixelPhaseEncode": 33.602,
    "BaseResolution": 96,
    "BodyPartExamined": "BRAIN",
    "ConsistencyInfo": "N4_VD11D_LATEST_20110129",
    "ConversionSoftware": "dcm2niix",
    "ConversionSoftwareVersion": "v1.0.20210317",
    "DerivedVendorReportedEchoSpacing": 0.000620003,
    "DeviceSerialNumber": "45239",
    "DwellTime": 2.6e-06,
    "EchoTime": 0.03,
    "EchoTrainLength": 48,
    "EffectiveEchoSpacing": 0.000310001,
    "FlipAngle": 63,
    "ImageComments": "Unaliased MB4/PE3",
    "ImageOrientationPatientDICOM": [
        0.999916,
        0.00999398,
        0.00825644,
        -0.00433514,
        0.85803,
        -0.513582
    ],
    "ImageType": [
        "ORIGINAL",
        "PRIMARY",
        "M",
        "ND",
        "NORM",
        "MOSAIC"
    ],
    "ImagingFrequency": 123.193,
    "InPlanePhaseEncodingDirectionDICOM": "COL",
    "InstitutionAddress": "E 24th St. 100,Austin,Southmiddle,US,78712",
    "InstitutionName": "Univ of Texas at Austin",
    "InstitutionalDepartmentName": "IRC",
    "MRAcquisitionType": "2D",
    "MagneticFieldStrength": 3,
    "Manufacturer": "Siemens",
    "ManufacturersModelName": "Skyra",
    "Modality": "MR",
    "MultibandAccelerationFactor": 4,
    "ParallelReductionFactorInPlane": 2,
    "PartialFourier": 1,
    "PatientPosition": "HFS",
    "PercentPhaseFOV": 100,
    "PercentSampling": 100,
    "PhaseEncodingDirection": "j-",
    "PhaseEncodingSteps": 96,
    "PhaseResolution": 1,
    "PixelBandwidth": 2005,
    "ProcedureStepDescription": "Poldrack2^self-scanning",
    "ProtocolName": "Resting State fMRI MBEPI_matrix96_BW2004",
    "PulseSequenceDetails": "%CustomerSeq%\\cmrr_mbep2d_bold",
    "ReceiveCoilActiveElements": "HEA;HEP",
    "ReceiveCoilName": "Head_32",
    "ReconMatrixPE": 96,
    "RefLinesPE": 94,
    "RepetitionTime": 1.16,
    "SAR": 0.108445,
    "ScanOptions": "FS",
    "ScanningSequence": "EP",
    "SequenceName": "epfid2d1_96",
    "SequenceVariant": "SK",
    "SeriesDescription": "Resting State fMRI MBEPI_matrix96_BW2004",
    "SeriesNumber": 11,
    "ShimSetting": [
        -2779,
        8012,
        -15419,
        165,
        -169,
        -39,
        230,
        -106
    ],
    "SliceThickness": 2,
    "SliceTiming": [
        0,
        0.615,
        0.0675,
        0.6825,
        0.1375,
        0.75,
        0.205,
        0.8175,
        0.2725,
        0.8875,
        0.34,
        0.955,
        0.41,
        1.0225,
        0.4775,
        1.0925,
        0.545,
        0,
        0.615,
        0.0675,
        0.6825,
        0.1375,
        0.75,
        0.205,
        0.8175,
        0.2725,
        0.8875,
        0.34,
        0.955,
        0.41,
        1.0225,
        0.4775,
        1.0925,
        0.545,
        0,
        0.615,
        0.0675,
        0.6825,
        0.1375,
        0.75,
        0.205,
        0.8175,
        0.2725,
        0.8875,
        0.34,
        0.955,
        0.41,
        1.0225,
        0.4775,
        1.0925,
        0.545,
        0,
        0.615,
        0.0675,
        0.6825,
        0.1375,
        0.75,
        0.205,
        0.8175,
        0.2725,
        0.8875,
        0.34,
        0.955,
        0.41,
        1.0225,
        0.4775,
        1.0925,
        0.545
    ],
    "SoftwareVersions": "syngo MR D11",
    "SpacingBetweenSlices": 2.4,
    "StationName": "AWP45239",
    "TaskName": "Resting fmri",
    "TotalReadoutTime": 0.0294501,
    "TxRefAmp": 350.098,
    "WipMemBlock": "b7b8eefc-b313-44eb-ac8f-0670f5204167||Sequence: VD11D r154; May 23 2012 22:27:19 by eja",
    "dcmmeta_affine": [
        [
            -2.395632028579712,
            -0.0103862714022398,
            0.02932080253958702,
            114.07849884033203
        ],
        [
            -0.02394391968846321,
            2.0556960105895996,
            -1.2324069738388062,
            -68.59464263916016
        ],
        [
            0.01978105865418911,
            1.2304564714431763,
            2.059201955795288,
            -74.92156219482422
        ],
        [
            0.0,
            0.0,
            0.0,
            1.0
        ]
    ],
    "dcmmeta_reorient_transform": [
        [
            0.0,
            -1.0,
            0.0,
            95.0
        ],
        [
            1.0,
            0.0,
            0.0,
            0.0
        ],
        [
            0.0,
            0.0,
            1.0,
            0.0
        ],
        [
            0.0,
            0.0,
            0.0,
            1.0
        ]
    ],
    "dcmmeta_shape": [
        96,
        96,
        68,
        518
    ],
    "dcmmeta_slice_dim": 2,
    "dcmmeta_version": 0.6,
    "global": {
        "const": {
            "AcquisitionMatrix": [
                96,
                0,
                0,
                96
            ],
            "AngioFlag": "N",
            "BitsAllocated": 16,
            "BitsStored": 16,
            "BodyPartExamined": "BRAIN",
            "Columns": 864,
            "EchoNumbers": 1,
            "EchoTime": 30.0,
            "EchoTrainLength": 48,
            "FlipAngle": 63.0,
            "HighBit": 15,
            "ImageOrientationPatient": [
                0.99991597219065,
                0.00999398398281,
                0.00825644246444,
                -0.0043351396346,
                0.85802964395436,
                -0.5135818694813
            ],
            "ImagePositionPatient": [
                -1029.0261365987,
                -925.27818533713,
                506.87118415022
            ],
            "ImageType": [
                "ORIGINAL",
                "PRIMARY",
                "M",
                "ND",
                "NORM",
                "MOSAIC"
            ],
            "ImagedNucleus": "1H",
            "ImagingFrequency": 123.193472,
            "InPlanePhaseEncodingDirection": "COL",
            "MRAcquisitionType": "2D",
            "MagneticFieldStrength": 3.0,
            "Manufacturer": "SIEMENS",
            "ManufacturerModelName": "Skyra",
            "Modality": "MR",
            "NumberOfAverages": 1.0,
            "NumberOfPhaseEncodingSteps": 96,
            "PercentPhaseFieldOfView": 100.0,
            "PercentSampling": 100.0,
            "PerformedProcedureStepStartTime": "170338.906000",
            "PhotometricInterpretation": "MONOCHROME2",
            "PixelBandwidth": 2005.0,
            "PixelRepresentation": 0,
            "PixelSpacing": [
                2.3958332538605,
                2.3958332538605
            ],
            "ProtocolName": "Resting State fMRI MBEPI_matrix96_BW2004",
            "RepetitionTime": 1160.0,
            "Rows": 864,
            "SAR": 0.10844487635944,
            "SamplesPerPixel": 1,
            "ScanOptions": "FS",
            "ScanningSequence": "EP",
            "SequenceName": "epfid2d1_96",
            "SequenceVariant": "SK",
            "SeriesDescription": "Resting State fMRI MBEPI_matrix96_BW2004",
            "SeriesNumber": 11,
            "SeriesTime": "171821.921000",
            "SliceLocation": -27.665520201737,
            "SliceThickness": 2.0,
            "SmallestImagePixelValue": 0,
            "SoftwareVersions": "syngo MR D11",
            "SpacingBetweenSlices": 2.3999999443083,
            "SpecificCharacterSet": "ISO_IR 100",
            "StudyID": "1",
            "StudyTime": "170338.875000",
            "TransmitCoilName": "Body",
            "VariableFlipAngleFlag": "N",
            "WindowCenterWidthExplanation": "Algo1",
            "dBdt": 0.0
        },
        "slices": {}
    },
    "time": {
        "samples": {
            "AcquisitionNumber": [
                1,
                2,
                3,
                4,
                5,
                6,
                7,
                8,
                9,
                10,
                11,
                12,
                13,
                14,
                15,
                16,
                17,
                18,
                19,
                20,
                21,
                22,
                23,
                24,
                25,
                26,
                27,
                28,
                29,
                30,
                31,
                32,
                33,
                34,
                35,
                36,
                37,
                38,
                39,
                40,
                41,
                42,
                43,
                44,
                45,
                46,
                47,
                48,
                49,
                50,
                51,
                52,
                53,
                54,
                55,
                56,
                57,
                58,
                59,
                60,
                61,
                62,
                63,
                64,
                65,
                66,
                67,
                68,
                69,
                70,
                71,
                72,
                73,
                74,
                75,
                76,
                77,
                78,
                79,
                80,
                81,
                82,
                83,
                84,
                85,
                86,
                87,
                88,
                89,
                90,
                91,
                92,
                93,
                94,
                95,
                96,
                97,
                98,
                99,
                100,
                101,
                102,
                103,
                104,
                105,
                106,
                107,
                108,
                109,
                110,
                111,
                112,
                113,
                114,
                115,
                116,
                117,
                118,
                119,
                120,
                121,
                122,
                123,
                124,
                125,
                126,
                127,
                128,
                129,
                130,
                131,
                132,
                133,
                134,
                135,
                136,
                137,
                138,
                139,
                140,
                141,
                142,
                143,
                144,
                145,
                146,
                147,
                148,
                149,
                150,
                151,
                152,
                153,
                154,
                155,
                156,
                157,
                158,
                159,
                160,
                161,
                162,
                163,
                164,
                165,
                166,
                167,
                168,
                169,
                170,
                171,
                172,
                173,
                174,
                175,
                176,
                177,
                178,
                179,
                180,
                181,
                182,
                183,
                184,
                185,
                186,
                187,
                188,
                189,
                190,
                191,
                192,
                193,
                194,
                195,
                196,
                197,
                198,
                199,
                200,
                201,
                202,
                203,
                204,
                205,
                206,
                207,
                208,
                209,
                210,
                211,
                212,
                213,
                214,
                215,
                216,
                217,
                218,
                219,
                220,
                221,
                222,
                223,
                224,
                225,
                226,
                227,
                228,
                229,
                230,
                231,
                232,
                233,
                234,
                235,
                236,
                237,
                238,
                239,
                240,
                241,
                242,
                243,
                244,
                245,
                246,
                247,
                248,
                249,
                250,
                251,
                252,
                253,
                254,
                255,
                256,
                257,
                258,
                259,
                260,
                261,
                262,
                263,
                264,
                265,
                266,
                267,
                268,
                269,
                270,
                271,
                272,
                273,
                274,
                275,
                276,
                277,
                278,
                279,
                280,
                281,
                282,
                283,
                284,
                285,
                286,
                287,
                288,
                289,
                290,
                291,
                292,
                293,
                294,
                295,
                296,
                297,
                298,
                299,
                300,
                301,
                302,
                303,
                304,
                305,
                306,
                307,
                308,
                309,
                310,
                311,
                312,
                313,
                314,
                315,
                316,
                317,
                318,
                319,
                320,
                321,
                322,
                323,
                324,
                325,
                326,
                327,
                328,
                329,
                330,
                331,
                332,
                333,
                334,
                335,
                336,
                337,
                338,
                339,
                340,
                341,
                342,
                343,
                344,
                345,
                346,
                347,
                348,
                349,
                350,
                351,
                352,
                353,
                354,
                355,
                356,
                357,
                358,
                359,
                360,
                361,
                362,
                363,
                364,
                365,
                366,
                367,
                368,
                369,
                370,
                371,
                372,
                373,
                374,
                375,
                376,
                377,
                378,
                379,
                380,
                381,
                382,
                383,
                384,
                385,
                386,
                387,
                388,
                389,
                390,
                391,
                392,
                393,
                394,
                395,
                396,
                397,
                398,
                399,
                400,
                401,
                402,
                403,
                404,
                405,
                406,
                407,
                408,
                409,
                410,
                411,
                412,
                413,
                414,
                415,
                416,
                417,
                418,
                419,
                420,
                421,
                422,
                423,
                424,
                425,
                426,
                427,
                428,
                429,
                430,
                431,
                432,
                433,
                434,
                435,
                436,
                437,
                438,
                439,
                440,
                441,
                442,
                443,
                444,
                445,
                446,
                447,
                448,
                449,
                450,
                451,
                452,
                453,
                454,
                455,
                456,
                457,
                458,
                459,
                460,
                461,
                462,
                463,
                464,
                465,
                466,
                467,
                468,
                469,
                470,
                471,
                472,
                473,
                474,
                475,
                476,
                477,
                478,
                479,
                480,
                481,
                482,
                483,
                484,
                485,
                486,
                487,
                488,
                489,
                490,
                491,
                492,
                493,
                494,
                495,
                496,
                497,
                498,
                499,
                500,
                501,
                502,
                503,
                504,
                505,
                506,
                507,
                508,
                509,
                510,
                511,
                512,
                513,
                514,
                515,
                516,
                517,
                518
            ],
            "AcquisitionTime": [
                "171734.672500",
                "171803.672500",
                "171804.832500",
                "171805.992500",
                "171807.152500",
                "171808.312500",
                "171809.472500",
                "171810.632500",
                "171811.792500",
                "171812.952500",
                "171814.112500",
                "171815.272500",
                "171816.432500",
                "171817.592500",
                "171818.752500",
                "171819.912500",
                "171821.072500",
                "171822.232500",
                "171823.392500",
                "171824.552500",
                "171825.712500",
                "171826.872500",
                "171828.032500",
                "171829.192500",
                "171830.352500",
                "171831.512500",
                "171832.672500",
                "171833.832500",
                "171834.992500",
                "171836.152500",
                "171837.312500",
                "171838.472500",
                "171839.632500",
                "171840.792500",
                "171841.952500",
                "171843.112500",
                "171844.272500",
                "171845.432500",
                "171846.592500",
                "171847.752500",
                "171848.912500",
                "171850.072500",
                "171851.232500",
                "171852.392500",
                "171853.552500",
                "171854.712500",
                "171855.872500",
                "171857.032500",
                "171858.192500",
                "171859.352500",
                "171900.512500",
                "171901.672500",
                "171902.832500",
                "171903.992500",
                "171905.152500",
                "171906.312500",
                "171907.472500",
                "171908.632500",
                "171909.792500",
                "171910.952500",
                "171912.112500",
                "171913.272500",
                "171914.432500",
                "171915.592500",
                "171916.752500",
                "171917.912500",
                "171919.072500",
                "171920.232500",
                "171921.392500",
                "171922.552500",
                "171923.712500",
                "171924.872500",
                "171926.032500",
                "171927.192500",
                "171928.352500",
                "171929.512500",
                "171930.672500",
                "171931.832500",
                "171932.992500",
                "171934.152500",
                "171935.312500",
                "171936.472500",
                "171937.632500",
                "171938.792500",
                "171939.952500",
                "171941.112500",
                "171942.272500",
                "171943.432500",
                "171944.592500",
                "171945.752500",
                "171946.912500",
                "171948.072500",
                "171949.232500",
                "171950.392500",
                "171951.552500",
                "171952.712500",
                "171953.872500",
                "171955.032500",
                "171956.192500",
                "171957.352500",
                "171958.512500",
                "171959.672500",
                "172000.832500",
                "172001.992500",
                "172003.152500",
                "172004.312500",
                "172005.472500",
                "172006.632500",
                "172007.792500",
                "172008.952500",
                "172010.112500",
                "172011.272500",
                "172012.432500",
                "172013.592500",
                "172014.752500",
                "172015.912500",
                "172017.072500",
                "172018.232500",
                "172019.392500",
                "172020.552500",
                "172021.712500",
                "172022.872500",
                "172024.032500",
                "172025.192500",
                "172026.352500",
                "172027.512500",
                "172028.672500",
                "172029.832500",
                "172030.992500",
                "172032.152500",
                "172033.312500",
                "172034.472500",
                "172035.632500",
                "172036.792500",
                "172037.952500",
                "172039.112500",
                "172040.272500",
                "172041.432500",
                "172042.592500",
                "172043.752500",
                "172044.912500",
                "172046.072500",
                "172047.232500",
                "172048.392500",
                "172049.552500",
                "172050.712500",
                "172051.872500",
                "172053.032500",
                "172054.192500",
                "172055.352500",
                "172056.512500",
                "172057.672500",
                "172058.832500",
                "172059.992500",
                "172101.152500",
                "172102.312500",
                "172103.472500",
                "172104.632500",
                "172105.792500",
                "172106.952500",
                "172108.112500",
                "172109.272500",
                "172110.432500",
                "172111.592500",
                "172112.752500",
                "172113.912500",
                "172115.072500",
                "172116.232500",
                "172117.392500",
                "172118.552500",
                "172119.712500",
                "172120.872500",
                "172122.032500",
                "172123.192500",
                "172124.352500",
                "172125.512500",
                "172126.672500",
                "172127.832500",
                "172128.992500",
                "172130.152500",
                "172131.312500",
                "172132.472500",
                "172133.632500",
                "172134.792500",
                "172135.952500",
                "172137.112500",
                "172138.272500",
                "172139.432500",
                "172140.592500",
                "172141.752500",
                "172142.912500",
                "172144.072500",
                "172145.232500",
                "172146.392500",
                "172147.552500",
                "172148.712500",
                "172149.872500",
                "172151.032500",
                "172152.192500",
                "172153.352500",
                "172154.512500",
                "172155.672500",
                "172156.832500",
                "172157.992500",
                "172159.152500",
                "172200.312500",
                "172201.472500",
                "172202.632500",
                "172203.792500",
                "172204.952500",
                "172206.112500",
                "172207.272500",
                "172208.432500",
                "172209.592500",
                "172210.752500",
                "172211.912500",
                "172213.072500",
                "172214.232500",
                "172215.392500",
                "172216.552500",
                "172217.712500",
                "172218.872500",
                "172220.032500",
                "172221.192500",
                "172222.352500",
                "172223.512500",
                "172224.672500",
                "172225.832500",
                "172226.992500",
                "172228.152500",
                "172229.312500",
                "172230.472500",
                "172231.632500",
                "172232.792500",
                "172233.952500",
                "172235.112500",
                "172236.272500",
                "172237.432500",
                "172238.592500",
                "172239.752500",
                "172240.912500",
                "172242.072500",
                "172243.232500",
                "172244.392500",
                "172245.552500",
                "172246.712500",
                "172247.872500",
                "172249.032500",
                "172250.192500",
                "172251.352500",
                "172252.512500",
                "172253.672500",
                "172254.832500",
                "172255.992500",
                "172257.152500",
                "172258.312500",
                "172259.472500",
                "172300.632500",
                "172301.792500",
                "172302.952500",
                "172304.112500",
                "172305.272500",
                "172306.432500",
                "172307.592500",
                "172308.752500",
                "172309.912500",
                "172311.072500",
                "172312.232500",
                "172313.392500",
                "172314.552500",
                "172315.712500",
                "172316.872500",
                "172318.032500",
                "172319.192500",
                "172320.352500",
                "172321.512500",
                "172322.672500",
                "172323.832500",
                "172324.992500",
                "172326.152500",
                "172327.312500",
                "172328.472500",
                "172329.632500",
                "172330.792500",
                "172331.952500",
                "172333.112500",
                "172334.272500",
                "172335.432500",
                "172336.592500",
                "172337.752500",
                "172338.912500",
                "172340.072500",
                "172341.232500",
                "172342.392500",
                "172343.552500",
                "172344.712500",
                "172345.872500",
                "172347.032500",
                "172348.192500",
                "172349.352500",
                "172350.512500",
                "172351.672500",
                "172352.832500",
                "172353.992500",
                "172355.152500",
                "172356.312500",
                "172357.472500",
                "172358.632500",
                "172359.792500",
                "172400.952500",
                "172402.112500",
                "172403.272500",
                "172404.432500",
                "172405.592500",
                "172406.752500",
                "172407.912500",
                "172409.072500",
                "172410.232500",
                "172411.392500",
                "172412.552500",
                "172413.712500",
                "172414.872500",
                "172416.032500",
                "172417.192500",
                "172418.352500",
                "172419.512500",
                "172420.672500",
                "172421.832500",
                "172422.992500",
                "172424.152500",
                "172425.312500",
                "172426.472500",
                "172427.632500",
                "172428.792500",
                "172429.952500",
                "172431.112500",
                "172432.272500",
                "172433.432500",
                "172434.592500",
                "172435.752500",
                "172436.912500",
                "172438.072500",
                "172439.232500",
                "172440.392500",
