{"AcquisitionMatrixPE": 96, "AcquisitionNumber": 1, "AcquisitionTime": "07:57:58.950000", "BandwidthPerPixelPhaseEncode": 33.602, "BaseResolution": 96, "BodyPartExamined": "BRAIN", "ConsistencyInfo": "N4_VD11D_LATEST_20110129", "ConversionSoftware": "dcm2niix", "ConversionSoftwareVersion": "v1.0.20210317", "DerivedVendorReportedEchoSpacing": 0.000620003, "DeviceSerialNumber": "45239", "DwellTime": 2.6e-06, "EchoTime": 0.03, "EchoTrainLength": 48, "EffectiveEchoSpacing": 0.000310001, "FlipAngle": 63, "ImageComments": "Unaliased MB4/PE3", "ImageOrientationPatientDICOM": [0.999977, -0.00602943, 0.00303248, 0.00674907, 0.893351, -0.449309], "ImageType": ["ORIGINAL", "PRIMARY", "M", "ND", "NORM", "MOSAIC"], "ImagingFrequency": 123.193, "InPlanePhaseEncodingDirectionDICOM": "COL", "InstitutionAddress": "E 24th St. 100,Austin,Southmiddle,US,78712", "InstitutionName": "Univ of Texas at Austin", "InstitutionalDepartmentName": "IRC", "MRAcquisitionType": "2D", "MagneticFieldStrength": 3, "Manufacturer": "Siemens", "ManufacturersModelName": "Skyra", "Modality": "MR", "MultibandAccelerationFactor": 4, "ParallelReductionFactorInPlane": 2, "PartialFourier": 1, "PatientPosition": "HFS", "PercentPhaseFOV": 100, "PercentSampling": 100, "PhaseEncodingDirection": "j-", "PhaseEncodingSteps": 96, "PhaseResolution": 1, "PixelBandwidth": 2005, "ProcedureStepDescription": "Poldrack2^self-scanning", "ProtocolName": "Breath_Hold", "PulseSequenceDetails": "%CustomerSeq%\\cmrr_mbep2d_bold", "ReceiveCoilActiveElements": "HEA;HEP", "ReceiveCoilName": "Head_32", "ReconMatrixPE": 96, "RefLinesPE": 94, "RepetitionTime": 1.16, "SAR": 0.0973553, "ScanOptions": "FS", "ScanningSequence": "EP", "SequenceName": "epfid2d1_96", "SequenceVariant": "SK", "SeriesDescription": "Breath_Hold", "SeriesNumber": 10, "ShimSetting": [-2763, 8055, -15402, 173, -182, 148, 245, -92], "SliceThickness": 2, "SliceTiming": [0, 0.5, 0.9975, 0.3575, 0.855, 0.215, 0.7125, 0.0725, 0.57, 1.07, 0.4275, 0.9275, 0.285, 0.785, 0.1425, 0.6425, 0, 0.5, 0.9975, 0.3575, 0.855, 0.215, 0.7125, 0.0725, 0.57, 1.07, 0.4275, 0.9275, 0.285, 0.785, 0.1425, 0.6425, 0, 0.5, 0.9975, 0.3575, 0.855, 0.215, 0.7125, 0.0725, 0.57, 1.07, 0.4275, 0.9275, 0.285, 0.785, 0.1425, 0.6425, 0, 0.5, 0.9975, 0.3575, 0.855, 0.215, 0.7125, 0.0725, 0.57, 1.07, 0.4275, 0.9275, 0.285, 0.785, 0.1425, 0.6425], "SoftwareVersions": "syngo MR D11", "SpacingBetweenSlices": 2.4, "StationName": "AWP45239", "TaskName": "Breath holding task", "TotalReadoutTime": 0.0294501, "TxRefAmp": 337.458, "WipMemBlock": "0497367a-02b5-42fd-9b44-a75a742eb73a||Sequence: VD11D r206; Feb 13 2013 18:52:04 by eja", "dcmmeta_affine": [[-2.3957786560058594, 0.01616964489221573, -7.255534839600841e-09, 117.84284973144531], [0.014445500448346138, 2.140320062637329, -1.078365683555603, -85.17235565185547], [0.0072653223760426044, 1.0764689445495605, 2.1440913677215576, -80.50146484375], [0.0, 0.0, 0.0, 1.0]], "dcmmeta_reorient_transform": [[0.0, -1.0, 0.0, 95.0], [1.0, 0.0, 0.0, 0.0], [0.0, 0.0, 1.0, 0.0], [0.0, 0.0, 0.0, 1.0]], "dcmmeta_shape": [96, 96, 64, 318], "dcmmeta_slice_dim": 2, "dcmmeta_version": 0.6, "global": {"const": {"AcquisitionMatrix": [96, 0, 0, 96], "AngioFlag": "N", "BitsAllocated": 16, "BitsStored": 16, "BodyPartExamined": "BRAIN", "Columns": 768, "EchoNumbers": 1, "EchoTime": 30.0, "EchoTrainLength": 48, "FlipAngle": 63.0, "HighBit": 15, "ImageOrientationPatient": [0.99997722477422, -0.0060294264537, 0.00303248239802, 0.00674906903612, 0.89335102982242, -0.449308788677], "ImagePositionPatient": [-929.79360592132, -832.45191972141, 381.01550094727], "ImageType": ["ORIGINAL", "PRIMARY", "M", "ND", "NORM", "MOSAIC"], "ImagedNucleus": "1H", "ImagingFrequency": 123.193328, "InPlanePhaseEncodingDirection": "COL", "MRAcquisitionType": "2D", "MagneticFieldStrength": 3.0, "Manufacturer": "SIEMENS", "ManufacturerModelName": "Skyra", "Modality": "MR", "NumberOfAverages": 1.0, "NumberOfPhaseEncodingSteps": 96, "PercentPhaseFieldOfView": 100.0, "PercentSampling": 100.0, "PerformedProcedureStepStartTime": "072602.875000", "PhotometricInterpretation": "MONOCHROME2", "PixelBandwidth": 2005.0, "PixelRepresentation": 0, "PixelSpacing": [2.3958332538605, 2.3958332538605], "ProtocolName": "Breath_Hold", "RepetitionTime": 1160.0, "Rows": 768, "SAR": 0.09735530864482, "SamplesPerPixel": 1, "ScanOptions": "FS", "ScanningSequence": "EP", "SequenceName": "epfid2d1_96", "SequenceVariant": "SK", "SeriesDescription": "Breath_Hold", "SeriesNumber": 10, "SeriesTime": "075837.687000", "SliceLocation": -33.648142668479, "SliceThickness": 2.0, "SmallestImagePixelValue": 0, "SoftwareVersions": "syngo MR D11", "SpacingBetweenSlices": 2.3999999887492, "SpecificCharacterSet": "ISO_IR 100", "StudyID": "1", "StudyTime": "072602.828000", "TransmitCoilName": "Body", "VariableFlipAngleFlag": "N", "WindowCenterWidthExplanation": "Algo1", "dBdt": 0.0}, "slices": {}}, "time": {"samples": {"AcquisitionNumber": [1, 2, 3, 4, 5, 6, 7, 8, 9, 10, 11, 12, 13, 14, 15, 16, 17, 18, 19, 20, 21, 22, 23, 24, 25, 26, 27, 28, 29, 30, 31, 32, 33, 34, 35, 36, 37, 38, 39, 40, 41, 42, 43, 44, 45, 46, 47, 48, 49, 50, 51, 52, 53, 54, 55, 56, 57, 58, 59, 60, 61, 62, 63, 64, 65, 66, 67, 68, 69, 70, 71, 72, 73, 74, 75, 76, 77, 78, 79, 80, 81, 82, 83, 84, 85, 86, 87, 88, 89, 90, 91, 92, 93, 94, 95, 96, 97, 98, 99, 100, 101, 102, 103, 104, 105, 106, 107, 108, 109, 110, 111, 112, 113, 114, 115, 116, 117, 118, 119, 120, 121, 122, 123, 124, 125, 126, 127, 128, 129, 130, 131, 132, 133, 134, 135, 136, 137, 138, 139, 140, 141, 142, 143, 144, 145, 146, 147, 148, 149, 150, 151, 152, 153, 154, 155, 156, 157, 158, 159, 160, 161, 162, 163, 164, 165, 166, 167, 168, 169, 170, 171, 172, 173, 174, 175, 176, 177, 178, 179, 180, 181, 182, 183, 184, 185, 186, 187, 188, 189, 190, 191, 192, 193, 194, 195, 196, 197, 198, 199, 200, 201, 202, 203, 204, 205, 206, 207, 208, 209, 210, 211, 212, 213, 214, 215, 216, 217, 218, 219, 220, 221, 222, 223, 224, 225, 226, 227, 228, 229, 230, 231, 232, 233, 234, 235, 236, 237, 238, 239, 240, 241, 242, 243, 244, 245, 246, 247, 248, 249, 250, 251, 252, 253, 254, 255, 256, 257, 258, 259, 260, 261, 262, 263, 264, 265, 266, 267, 268, 269, 270, 271, 272, 273, 274, 275, 276, 277, 278, 279, 280, 281, 282, 283, 284, 285, 286, 287, 288, 289, 290, 291, 292, 293, 294, 295, 296, 297, 298, 299, 300, 301, 302, 303, 304, 305, 306, 307, 308, 309, 310, 311, 312, 313, 314, 315, 316, 317, 318], "AcquisitionTime": ["075758.950000", "075827.950000", "075829.110000", "075830.270000", "075831.430000", "075832.590000", "075833.750000", "075834.910000", "075836.070000", "075837.230000", "075838.390000", "075839.550000", "075840.710000", "075841.870000", "075843.030000", "075844.190000", "075845.350000", "075846.510000", "075847.670000", "075848.830000", "075849.990000", "075851.150000", "075852.310000", "075853.470000", "075854.630000", "075855.790000", "075856.950000", "075858.110000", "075859.270000", "075900.430000", "075901.590000", "075902.750000", "075903.910000", "075905.070000", "075906.230000", "075907.390000", "075908.550000", "075909.710000", "075910.870000", "075912.030000", "075913.190000", "075914.350000", "075915.510000", "075916.672500", "075917.832500", "075918.992500", "075920.152500", "075921.312500", "075922.472500", "075923.632500", "075924.792500", "075925.952500", "075927.112500", "075928.272500", "075929.432500", "075930.592500", "075931.752500", "075932.912500", "075934.072500", "075935.232500", "075936.392500", "075937.552500", "075938.712500", "075939.872500", "075941.032500", "075942.192500", "075943.352500", "075944.512500", "075945.672500", "075946.832500", "075947.992500", "075949.152500", "075950.312500", "075951.472500", "075952.632500", "075953.792500", "075954.952500", "075956.112500", "075957.272500", "075958.432500", "075959.592500", "080000.752500", "080001.912500", "080003.072500", "080004.232500", "080005.392500", "080006.552500", "080007.712500", "080008.872500", "080010.032500", "080011.192500", "080012.352500", "080013.512500", "080014.672500", "080015.832500", "080016.992500", "080018.152500", "080019.312500", "080020.472500", "080021.632500", "080022.792500", "080023.952500", "080025.112500", "080026.272500", "080027.432500", "080028.592500", "080029.752500", "080030.912500", "080032.072500", "080033.232500", "080034.392500", "080035.552500", "080036.712500", "080037.872500", "080039.032500", "080040.192500", "080041.352500", "080042.512500", "080043.672500", "080044.832500", "080045.992500", "080047.152500", "080048.312500", "080049.472500", "080050.632500", "080051.792500", "080052.952500", "080054.112500", "080055.272500", "080056.432500", "080057.592500", "080058.752500", "080059.912500", "080101.072500", "080102.232500", "080103.392500", "080104.552500", "080105.712500", "080106.872500", "080108.032500", "080109.192500", "080110.352500", "080111.512500", "080112.672500", "080113.832500", "080114.992500", "080116.152500", "080117.312500", "080118.472500", "080119.632500", "080120.792500", "080121.952500", "080123.112500", "080124.272500", "080125.432500", "080126.592500", "080127.752500", "080128.912500", "080130.072500", "080131.232500", "080132.392500", "080133.552500", "080134.712500", "080135.872500", "080137.032500", "080138.192500", "080139.352500", "080140.512500", "080141.672500", "080142.832500", "080143.992500", "080145.152500", "080146.312500", "080147.472500", "080148.632500", "080149.792500", "080150.952500", "080152.112500", "080153.272500", "080154.432500", "080155.592500", "080156.752500", "080157.912500", "080159.072500", "080200.232500", "080201.392500", "080202.552500", "080203.712500", "080204.872500", "080206.032500", "080207.192500", "080208.352500", "080209.512500", "080210.672500", "080211.832500", "080212.992500", "080214.152500", "080215.312500", "080216.472500", "080217.632500", "080218.792500", "080219.952500", "080221.112500", "080222.272500", "080223.432500", "080224.592500", "080225.752500", "080226.912500", "080228.072500", "080229.232500", "080230.392500", "080231.552500", "080232.712500", "080233.872500", "080235.032500", "080236.192500", "080237.352500", "080238.512500", "080239.672500", "080240.832500", "080241.992500", "080243.152500", "080244.312500", "080245.472500", "080246.632500", "080247.792500", "080248.952500", "080250.112500", "080251.272500", "080252.432500", "080253.592500", "080254.752500", "080255.912500", "080257.072500", "080258.232500", "080259.392500", "080300.552500", "080301.712500", "080302.872500", "080304.032500", "080305.192500", "080306.352500", "080307.512500", "080308.672500", "080309.832500", "080310.992500", "080312.152500", "080313.312500", "080314.472500", "080315.632500", "080316.792500", "080317.952500", "080319.112500", "080320.272500", "080321.432500", "080322.592500", "080323.752500", "080324.912500", "080326.072500", "080327.232500", "080328.392500", "080329.552500", "080330.712500", "080331.872500", "080333.032500", "080334.192500", "080335.352500", "080336.512500", "080337.672500", "080338.832500", "080339.992500", "080341.152500", "080342.312500", "080343.472500", "080344.632500", "080345.792500", "080346.952500", "080348.112500", "080349.272500", "080350.432500", "080351.592500", "080352.752500", "080353.912500", "080355.072500", "080356.232500", "080357.392500", "080358.552500", "080359.712500", "080400.872500", "080402.032500", "080403.192500", "080404.352500", "080405.512500", "080406.675000", "080407.835000", "080408.995000", "080410.155000", "080411.315000", "080412.475000", "080413.635000", "080414.795000", "080415.955000", "080417.115000", "080418.275000", "080419.435000", "080420.595000", "080421.755000", "080422.915000", "080424.075000", "080425.235000", "080426.395000", "080427.555000", "080428.715000", "080429.875000", "080431.035000", "080432.195000", "080433.355000", "080434.515000"], "ContentTime": ["075837.687000", "075845.593000", "075845.609000", "075845.609000", "075845.625000", "075845.625000", "075845.625000", "075850.593000", "075850.609000", "075850.609000", "075850.609000", "075855.593000", "075855.609000", "075855.609000", "075855.609000", "075900.593000", "075900.609000", "075900.609000", "075905.593000", "075905.609000", "075905.609000", "075905.609000", "075905.609000", "075910.593000", "075910.625000", "075910.625000", "075915.593000", "075915.609000", "075915.609000", "075915.609000", "075920.593000", "075920.609000", "075920.609000", "075920.609000", "075925.593000", "075925.671000", "075925.671000", "075930.593000", "075930.609000", "075930.609000", "075935.593000", "075935.609000", "075935.609000", "075935.609000", "075935.625000", "075940.593000", "075940.609000", "075940.609000", "075945.593000", "075945.625000", "075945.625000", "075945.640000", "075950.593000", "075950.609000", "075950.609000", "075950.609000", "075955.593000", "075955.609000", "075955.609000", "080000.593000", "080000.609000", "080000.609000", "080000.609000", "080005.593000", "080005.609000", "080005.609000", "080010.593000", "080010.609000", "080010.609000", "080010.609000", "080015.593000", "080015.609000", "080015.625000", "080015.640000", "080020.593000", "080020.640000", "080020.640000", "080025.593000", "080025.609000", "080025.609000", "080025.625000", "080025.625000", "080030.593000", "080030.687000", "080030.687000", "080035.593000", "080035.609000", "080035.609000", "080035.609000", "080040.593000", "080040.609000", "080040.609000", "080045.593000", "080045.609000", "080045.609000", "080045.609000", "080050.593000", "080050.609000", "080050.609000", "080050.609000", "080055.593000", "080055.609000", "080055.609000", "080055.609000", "080100.593000", "080100.609000", "080100.609000", "080100.609000", "080105.593000", "080105.609000", "080105.609000", "080110.593000", "080110.609000", "080110.609000", "080110.609000", "080115.593000", "080115.609000", "080115.609000", "080115.609000", "080120.593000", "080120.609000", "080120.609000", "080120.609000", "080125.593000", "080125.609000", "080125.609000", "080130.593000", "080130.609000", "080130.609000", "080130.609000", "080135.593000", "080135.609000", "080135.609000", "080135.609000", "080140.593000", "080140.609000", "080140.609000", "080140.609000", "080145.593000", "080145.609000", "080145.609000", "080150.593000", "080150.671000", "080150.671000", "080150.671000", "080155.593000", "080155.625000", "080155.625000", "080155.625000", "080200.593000", "080200.609000", "080200.609000", "080205.593000", "080205.609000", "080205.609000", "080205.609000", "080210.593000", "080210.609000", "080210.609000", "080210.625000", "080215.593000", "080215.609000", "080215.609000", "080220.593000", "080220.609000", "080220.609000", "080220.609000", "080220.625000", "080225.593000", "080225.609000", "080225.609000", "080230.593000", "080230.625000", "080230.625000", "080230.625000", "080235.593000", "080235.609000", "080235.609000", "080235.609000", "080240.593000", "080240.609000", "080240.609000", "080240.625000", "080245.593000", "080245.609000", "080245.609000", "080255.593000", "080255.609000", "080255.609000", "080255.609000", "080255.609000", "080255.625000", "080255.625000", "080300.593000", "080300.609000", "080300.609000", "080300.609000", "080305.593000", "080305.609000", "080305.609000", "080305.609000", "080310.593000", "080310.609000", "080310.609000", "080315.593000", "080315.609000", "080315.609000", "080315.625000", "080320.593000", "080320.609000", "080320.609000", "080325.593000", "080325.609000", "080325.625000", "080325.625000", "080330.593000", "080330.625000", "080330.625000", "080330.625000", "080335.593000", "080335.609000", "080335.609000", "080340.593000", "080340.609000", "080340.609000", "080340.609000", "080345.593000", "080345.609000", "080345.609000", "080350.593000", "080350.609000", "080350.609000", "080350.609000", "080355.593000", "080355.609000", "080355.609000", "080355.609000", "080400.593000", "080400.609000", "080400.609000", "080400.609000", "080405.593000", "080405.625000", "080405.625000", "080410.593000", "080410.609000", "080410.609000", "080410.609000", "080415.593000", "080415.718000", "080415.718000", "080415.718000", "080420.593000", "080420.609000", "080420.609000", "080420.609000", "080425.593000", "080425.609000", "080425.609000", "080430.593000", "080430.609000", "080430.609000", "080430.609000", "080435.593000", "080435.609000", "080435.609000", "080435.609000", "080440.593000", "080440.625000", "080440.625000", "080440.656000", "080445.593000", "080445.625000", "080445.625000", "080445.640000", "080450.593000", "080450.609000", "080450.625000", "080450.625000", "080455.593000", "080455.609000", "080455.609000", "080455.609000", "080500.593000", "080500.609000", "080500.609000", "080500.609000", "080505.593000", "080505.640000", "080505.640000", "080505.640000", "080510.593000", "080510.609000", "080510.609000", "080510.609000", "080515.593000", "080515.609000", "080515.609000", "080515.609000", "080520.593000", "080520.703000", "080520.703000", "080520.703000", "080525.593000", "080525.625000", "080525.625000", "080525.625000", "080530.593000", "080530.609000", "080530.609000", "080530.625000", "080535.593000", "080535.609000", "080535.609000", "080535.609000", "080537.968000", "080537.968000", "080537.984000"], "InstanceCreationTime": ["075837.687000", "075845.593000", "075845.609000", "075845.609000", "075845.625000", "075845.625000", "075845.625000", "075850.593000", "075850.609000", "075850.609000", "075850.609000", "075855.593000", "075855.609000", "075855.609000", "075855.609000", "075900.593000", "075900.609000", "075900.609000", "075905.593000", "075905.609000", "075905.609000", "075905.609000", "075905.609000", "075910.593000", "075910.625000", "075910.625000", "075915.593000", "075915.609000", "075915.609000", "075915.609000", "075920.593000", "075920.609000", "075920.609000", "075920.609000", "075925.593000", "075925.671000", "075925.671000", "075930.593000", "075930.609000", "075930.609000", "075935.593000", "075935.609000", "075935.609000", "075935.609000", "075935.625000", "075940.593000", "075940.609000", "075940.609000", "075945.593000", "075945.625000", "075945.625000", "075945.640000", "075950.593000", "075950.609000", "075950.609000", "075950.609000", "075955.593000", "075955.609000", "075955.609000", "080000.593000", "080000.609000", "080000.609000", "080000.609000", "080005.593000", "080005.609000", "080005.609000", "080010.593000", "080010.609000", "080010.609000", "080010.609000", "080015.593000", "080015.609000", "080015.625000", "080015.640000", "080020.593000", "080020.640000", "080020.640000", "080025.593000", "080025.609000", "080025.609000", "080025.625000", "080025.625000", "080030.593000", "080030.687000", "080030.687000", "080035.593000", "080035.609000", "080035.609000", "080035.609000", "080040.593000", "080040.609000", "080040.609000", "080045.593000", "080045.609000", "080045.609000", "080045.609000", "080050.593000", "080050.609000", "080050.609000", "080050.609000", "080055.593000", "080055.609000", "080055.609000", "080055.609000", "080100.593000", "080100.609000", "080100.609000", "080100.609000", "080105.593000", "080105.609000", "080105.609000", "080110.593000", "080110.609000", "080110.609000", "080110.609000", "080115.593000", "080115.609000", "080115.609000", "080115.609000", "080120.593000", "080120.609000", "080120.609000", "080120.609000", "080125.593000", "080125.609000", "080125.609000", "080130.593000", "080130.609000", "080130.609000", "080130.609000", "080135.593000", "080135.609000", "080135.609000", "080135.609000", "080140.593000", "080140.609000", "080140.609000", "080140.609000", "080145.593000", "080145.609000", "080145.609000", "080150.593000", "080150.671000", "080150.671000", "080150.671000", "080155.593000", "080155.625000", "080155.625000", "080155.625000", "080200.593000", "080200.609000", "080200.609000", "080205.593000", "080205.609000", "080205.609000", "080205.609000", "080210.593000", "080210.609000", "080210.609000", "080210.625000", "080215.593000", "080215.609000", "080215.609000", "080220.593000", "080220.609000", "080220.609000", "080220.609000", "080220.625000", "080225.593000", "080225.609000", "080225.609000", "080230.593000", "080230.625000", "080230.625000", "080230.625000", "080235.593000", "080235.609000", "080235.609000", "080235.609000", "080240.593000", "080240.609000", "080240.609000", "080240.625000", "080245.593000", "080245.609000", "080245.609000", "080255.593000", "080255.609000", "080255.609000", "080255.609000", "080255.609000", "080255.625000", "080255.625000", "080300.593000", "080300.609000", "080300.609000", "080300.609000", "080305.593000", "080305.609000", "080305.609000", "080305.609000", "080310.593000", "080310.609000", "080310.609000", "080315.593000", "080315.609000", "080315.609000", "080315.625000", "080320.593000", "080320.609000", "080320.609000", "080325.593000", "080325.609000", "080325.625000", "080325.625000", "080330.593000", "080330.625000", "080330.625000", "080330.625000", "080335.593000", "080335.609000", "080335.609000", "080340.593000", "080340.609000", "080340.609000", "080340.609000", "080345.593000", "080345.609000", "080345.609000", "080350.593000", "080350.609000", "080350.609000", "080350.609000", "080355.593000", "080355.609000", "080355.609000", "080355.609000", "080400.593000", "080400.609000", "080400.609000", "080400.609000", "080405.593000", "080405.625000", "080405.625000", "080410.593000", "080410.609000", "080410.609000", "080410.609000", "080415.593000", "080415.718000", "080415.718000", "080415.718000", "080420.593000", "080420.609000", "080420.609000", "080420.609000", "080425.593000", "080425.609000", "080425.609000", "080430.593000", "080430.609000", "080430.609000", "080430.609000", "080435.593000", "080435.609000", "080435.609000", "080435.609000", "080440.593000", "080440.625000", "080440.625000", "080440.656000", "080445.593000", "080445.625000", "080445.625000", "080445.640000", "080450.593000", "080450.609000", "080450.625000", "080450.625000", "080455.593000", "080455.609000", "080455.609000", "080455.609000", "080500.593000", "080500.609000", "080500.609000", "080500.609000", "080505.593000", "080505.640000", "080505.640000", "080505.640000", "080510.593000", "080510.609000", "080510.609000", "080510.609000", "080515.593000", "080515.609000", "080515.609000", "080515.609000", "080520.593000", "080520.703000", "080520.703000", "080520.703000", "080525.593000", "080525.625000", "080525.625000", "080525.625000", "080530.593000", "080530.609000", "080530.609000", "080530.625000", "080535.593000", "080535.609000", "080535.609000", "080535.609000", "080537.968000", "080537.968000", "080537.984000"], "InstanceNumber": [1, 2, 3, 4, 5, 6, 7, 8, 9, 10, 11, 12, 13, 14, 15, 16, 17, 18, 19, 20, 21, 22, 23, 24, 25, 26, 27, 28, 29, 30, 31, 32, 33, 34, 35, 36, 37, 38, 39, 40, 41, 42, 43, 44, 45, 46, 47, 48, 49, 50, 51, 52, 53, 54, 55, 56, 57, 58, 59, 60, 61, 62, 63, 64, 65, 66, 67, 68, 69, 70, 71, 72, 73, 74, 75, 76, 77, 78, 79, 80, 81, 82, 83, 84, 85, 86, 87, 88, 89, 90, 91, 92, 93, 94, 95, 96, 97, 98, 99, 100, 101, 102, 103, 104, 105, 106, 107, 108, 109, 110, 111, 112, 113, 114, 115, 116, 117, 118, 119, 120, 121, 122, 123, 124, 125, 126, 127, 128, 129, 130, 131, 132, 133, 134, 135, 136, 137, 138, 139, 140, 141, 142, 143, 144, 145, 146, 147, 148, 149, 150, 151, 152, 153, 154, 155, 156, 157, 158, 159, 160, 161, 162, 163, 164, 165, 166, 167, 168, 169, 170, 171, 172, 173, 174, 175, 176, 177, 178, 179, 180, 181, 182, 183, 184, 185, 186, 187, 188, 189, 190, 191, 192, 193, 194, 195, 196, 197, 198, 199, 200, 201, 202, 203, 204, 205, 206, 207, 208, 209, 210, 211, 212, 213, 214, 215, 216, 217, 218, 219, 220, 221, 222, 223, 224, 225, 226, 227, 228, 229, 230, 231, 232, 233, 234, 235, 236, 237, 238, 239, 240, 241, 242, 243, 244, 245, 246, 247, 248, 249, 250, 251, 252, 253, 254, 255, 256, 257, 258, 259, 260, 261, 262, 263, 264, 265, 266, 267, 268, 269, 270, 271, 272, 273, 274, 275, 276, 277, 278, 279, 280, 281, 282, 283, 284, 285, 286, 287, 288, 289, 290, 291, 292, 293, 294, 295, 296, 297, 298, 299, 300, 301, 302, 303, 304, 305, 306, 307, 308, 309, 310, 311, 312, 313, 314, 315, 316, 317, 318], "LargestImagePixelValue": [27209, 34429, 31544, 29646, 33093, 32592, 26392, 26233, 32952, 27318, 26142, 31652, 31595, 29492, 31516, 33525, 27739, 26124, 26199, 34116, 33326, 26284, 33912, 30410, 26854, 26170, 33643, 32868, 26372, 28397, 26501, 26316, 33817, 32746, 26210, 26726, 26766, 26408, 32575, 28189, 26492, 33874, 31932, 27357, 31729, 26244, 26147, 26328, 26226, 29202, 26380, 32732, 27292, 27538, 30329, 27237, 31561, 27699, 26743, 30209, 27952, 32536, 26781, 33756, 29234, 27368, 28600, 35078, 31950, 29831, 34393, 34453, 32042, 27130, 31722, 26945, 28570, 34117, 34365, 30064, 31767, 26734, 26977, 27179, 34262, 30133, 26949, 33117, 26864, 26812, 34912, 27224, 27178, 35258, 30829, 27190, 34666, 27029, 27443, 32088, 27023, 27352, 28613, 29105, 27138, 27484, 27337, 34391, 33023, 32362, 27267, 27114, 27166, 34446, 29612, 32884, 27258, 31298, 33275, 33789, 32040, 33144, 34636, 30772, 28750, 27698, 33013, 30880, 31246, 27532, 27486, 27333, 33137, 30319, 27727, 33970, 32965, 28993, 27211, 27295, 28245, 27823, 34209, 28339, 27833, 34346, 31110, 31699, 30761, 31838, 27537, 27512, 30554, 27553, 27632, 28412, 27677, 27747, 30839, 27777, 29742, 34426, 30801, 27465, 29926, 27984, 30083, 33814, 27769, 34149, 28172, 33566, 28043, 28235, 35783, 30770, 31210, 29971, 33026, 27725, 33059, 31780, 27974, 34401, 32516, 31231, 27863, 27957, 34133, 32413, 28283, 35628, 32359, 28001, 27828, 28144, 34286, 27993, 27858, 28128, 28118, 33954, 31202, 27770, 27951, 27871, 33301, 27970, 27930, 27845, 28317, 28284, 28233, 29774, 28111, 27982, 33148, 32970, 28223, 28276, 33445, 30880, 30080, 32504, 34264, 31610, 28799, 28202, 33217, 30101, 28142, 32340, 33370, 28552, 28106, 28475, 33561, 33584, 28591, 28525, 33531, 28043, 28297, 33232, 29043, 28153, 33501, 30953, 28283, 28212, 28653, 29615, 28372, 33728, 28369, 28140, 30586, 28277, 28259, 30490, 28271, 28326, 30740, 28350, 28092, 29924, 29031, 33876, 28503, 28185, 31556, 27946, 32237, 30433, 30735, 32653, 33192, 29265, 28404, 32582, 31538, 29815, 34096, 30482, 30383, 28544, 34162, 27854, 30672, 28855, 34593, 29904, 28169, 33871, 28119, 29002, 28304, 34606, 32272, 28180, 31602, 34715, 28318, 28356, 33974, 29554, 31313, 28446, 33148, 28168, 28101, 28326, 29808, 28103, 28247, 29532, 28370, 29531], "WindowCenter": [10342.0, 10370.0, 10327.0, 10315.0, 10342.0, 10330.0, 10320.0, 10330.0, 10335.0, 10322.0, 10327.0, 10344.0, 10339.0, 10326.0, 10318.0, 10360.0, 10326.0, 10312.0, 10296.0, 10323.0, 10343.0, 10308.0, 10343.0, 10297.0, 10281.0, 10285.0, 10279.0, 10306.0, 10283.0, 10318.0, 10283.0, 10284.0, 10288.0, 10314.0, 10284.0, 10284.0, 10296.0, 10287.0, 10312.0, 10285.0, 10285.0, 10313.0, 10312.0, 10282.0, 10292.0, 10284.0, 10301.0, 10310.0, 10317.0, 10332.0, 10335.0, 10326.0, 10311.0, 10344.0, 10357.0, 10339.0, 10340.0, 10355.0, 10333.0, 10323.0, 10342.0, 10366.0, 10359.0, 10362.0, 10346.0, 10337.0, 10344.0, 10370.0, 10327.0, 10332.0, 10328.0, 10323.0, 10316.0, 10314.0, 10318.0, 10284.0, 10283.0, 10340.0, 10307.0, 10289.0, 10282.0, 10286.0, 10289.0, 10272.0, 10315.0, 10293.0, 10286.0, 10279.0, 10270.0, 10274.0, 10312.0, 10288.0, 10288.0, 10308.0, 10288.0, 10290.0, 10314.0, 10285.0, 10304.0, 10315.0, 10309.0, 10317.0, 10323.0, 10343.0, 10336.0, 10329.0, 10346.0, 10342.0, 10330.0, 10358.0, 10326.0, 10327.0, 10312.0, 10375.0, 10361.0, 10392.0, 10364.0, 10333.0, 10354.0, 10338.0, 10324.0, 10336.0, 10321.0, 10290.0, 10282.0, 10296.0, 10298.0, 10300.0, 10327.0, 10313.0, 10306.0, 10296.0, 10303.0, 10275.0, 10283.0, 10295.0, 10270.0, 10265.0, 10255.0, 10250.0, 10283.0, 10290.0, 10285.0, 10288.0, 10277.0, 10306.0, 10275.0, 10302.0, 10259.0, 10265.0, 10261.0, 10279.0, 10283.0, 10310.0, 10305.0, 10327.0, 10292.0, 10352.0, 10364.0, 10312.0, 10333.0, 10335.0, 10316.0, 10313.0, 10338.0, 10347.0, 10346.0, 10372.0, 10328.0, 10368.0, 10346.0, 10360.0, 10316.0, 10284.0, 10339.0, 10311.0, 10298.0, 10302.0, 10312.0, 10273.0, 10317.0, 10317.0, 10289.0, 10308.0, 10289.0, 10275.0, 10249.0, 10282.0, 10315.0, 10277.0, 10276.0, 10284.0, 10291.0, 10240.0, 10262.0, 10269.0, 10310.0, 10286.0, 10278.0, 10262.0, 10291.0, 10317.0, 10296.0, 10278.0, 10286.0, 10301.0, 10326.0, 10287.0, 10303.0, 10317.0, 10334.0, 10298.0, 10338.0, 10333.0, 10321.0, 10316.0, 10358.0, 10348.0, 10294.0, 10329.0, 10363.0, 10364.0, 10369.0, 10361.0, 10362.0, 10332.0, 10312.0, 10304.0, 10327.0, 10297.0, 10285.0, 10306.0, 10305.0, 10299.0, 10302.0, 10288.0, 10313.0, 10317.0, 10299.0, 10268.0, 10290.0, 10258.0, 10287.0, 10308.0, 10276.0, 10288.0, 10302.0, 10282.0, 10270.0, 10278.0, 10263.0, 10286.0, 10283.0, 10303.0, 10256.0, 10264.0, 10293.0, 10298.0, 10295.0, 10315.0, 10287.0, 10322.0, 10327.0, 10345.0, 10313.0, 10350.0, 10325.0, 10343.0, 10337.0, 10319.0, 10387.0, 10340.0, 10380.0, 10351.0, 10352.0, 10329.0, 10335.0, 10327.0, 10289.0, 10319.0, 10325.0, 10310.0, 10325.0, 10304.0, 10268.0, 10256.0, 10300.0, 10286.0, 10287.0, 10293.0, 10295.0, 10247.0, 10267.0, 10300.0, 10272.0, 10275.0, 10274.0, 10279.0, 10286.0, 10282.0, 10287.0, 10294.0, 10253.0, 10271.0, 10305.0, 10283.0, 10277.0, 10283.0, 10285.0, 10267.0, 10271.0, 10276.0, 10277.0, 10285.0, 10296.0, 10287.0, 10305.0, 10326.0], "WindowWidth": [22005.0, 22058.0, 21972.0, 21943.0, 21995.0, 21970.0, 21949.0, 21967.0, 21983.0, 21958.0, 21964.0, 22003.0, 21988.0, 21961.0, 21942.0, 22021.0, 21951.0, 21927.0, 21897.0, 21953.0, 21985.0, 21917.0, 21987.0, 21892.0, 21855.0, 21860.0, 21855.0, 21906.0, 21861.0, 21928.0, 21863.0, 21863.0, 21874.0, 21921.0, 21865.0, 21867.0, 21887.0, 21870.0, 21924.0, 21872.0, 21864.0, 21921.0, 21916.0, 21857.0, 21879.0, 21868.0, 21905.0, 21927.0, 21943.0, 21970.0, 21976.0, 21969.0, 21938.0, 21997.0, 22029.0, 21992.0, 22000.0, 22020.0, 21982.0, 21972.0, 22009.0, 22056.0, 22033.0, 22052.0, 22013.0, 21991.0, 22002.0, 22049.0, 21965.0, 21964.0, 21960.0