{
    "AcquisitionMatrixPE": 96,
    "AcquisitionNumber": 1,
    "AcquisitionTime": "07:40:49.537500",
    "BandwidthPerPixelPhaseEncode": 33.602,
    "BaseResolution": 96,
    "BodyPartExamined": "BRAIN",
    "ConsistencyInfo": "N4_VD11D_LATEST_20110129",
    "ConversionSoftware": "dcm2niix",
    "ConversionSoftwareVersion": "v1.0.20210317",
    "DerivedVendorReportedEchoSpacing": 0.000620003,
    "DeviceSerialNumber": "45239",
    "DwellTime": 2.6e-06,
    "EchoTime": 0.03,
    "EchoTrainLength": 48,
    "EffectiveEchoSpacing": 0.000310001,
    "FlipAngle": 63,
    "ImageComments": "Unaliased MB4/PE3",
    "ImageOrientationPatientDICOM": [
        0.999816,
        0.0109171,
        0.0158031,
        -0.000615719,
        0.84056,
        -0.541718
    ],
    "ImageType": [
        "ORIGINAL",
        "PRIMARY",
        "M",
        "ND",
        "NORM",
        "MOSAIC"
    ],
    "ImagingFrequency": 123.194,
    "InPlanePhaseEncodingDirectionDICOM": "COL",
    "InstitutionAddress": "E 24th St. 100,Austin,Southmiddle,US,78712",
    "InstitutionName": "Univ of Texas at Austin",
    "InstitutionalDepartmentName": "IRC",
    "MRAcquisitionType": "2D",
    "MagneticFieldStrength": 3,
    "Manufacturer": "Siemens",
    "ManufacturersModelName": "Skyra",
    "Modality": "MR",
    "MultibandAccelerationFactor": 4,
    "ParallelReductionFactorInPlane": 2,
    "PartialFourier": 1,
    "PatientPosition": "HFS",
    "PercentPhaseFOV": 100,
    "PercentSampling": 100,
    "PhaseEncodingDirection": "j-",
    "PhaseEncodingSteps": 96,
    "PhaseResolution": 1,
    "PixelBandwidth": 2005,
    "ProcedureStepDescription": "Poldrack2^self-scanning",
    "ProtocolName": "Resting State fMRI MBEPI_matrix96_BW2004",
    "PulseSequenceDetails": "%CustomerSeq%\\cmrr_mbep2d_bold",
    "ReceiveCoilActiveElements": "HEA;HEP",
    "ReceiveCoilName": "Head_32",
    "ReconMatrixPE": 96,
    "RefLinesPE": 94,
    "RepetitionTime": 1.16,
    "SAR": 0.0964154,
    "ScanOptions": "FS",
    "ScanningSequence": "EP",
    "SequenceName": "epfid2d1_96",
    "SequenceVariant": "SK",
    "SeriesDescription": "Resting State fMRI MBEPI_matrix96_BW2004",
    "SeriesNumber": 6,
    "ShimSetting": [
        -2803,
        8067,
        -15451,
        164,
        -227,
        160,
        201,
        -57
    ],
    "SliceThickness": 2,
    "SliceTiming": [
        0,
        0.5,
        0.9975,
        0.3575,
        0.855,
        0.215,
        0.7125,
        0.0725,
        0.57,
        1.07,
        0.4275,
        0.9275,
        0.285,
        0.785,
        0.1425,
        0.6425,
        0,
        0.5,
        0.9975,
        0.3575,
        0.855,
        0.215,
        0.7125,
        0.0725,
        0.57,
        1.07,
        0.4275,
        0.9275,
        0.285,
        0.785,
        0.1425,
        0.6425,
        0,
        0.5,
        0.9975,
        0.3575,
        0.855,
        0.215,
        0.7125,
        0.0725,
        0.57,
        1.07,
        0.4275,
        0.9275,
        0.285,
        0.785,
        0.1425,
        0.6425,
        0,
        0.5,
        0.9975,
        0.3575,
        0.855,
        0.215,
        0.7125,
        0.0725,
        0.57,
        1.07,
        0.4275,
        0.9275,
        0.285,
        0.785,
        0.1425,
        0.6425
    ],
    "SoftwareVersions": "syngo MR D11",
    "SpacingBetweenSlices": 2.4,
    "StationName": "AWP45239",
    "TaskName": "Resting fmri",
    "TotalReadoutTime": 0.0294501,
    "TxRefAmp": 331.462,
    "WipMemBlock": "84f65999-3c0a-4189-a211-21e6a3ab34b7||Sequence: VD11D r206; Feb 13 2013 18:52:04 by eja",
    "dcmmeta_affine": [
        [
            -2.3953912258148193,
            -0.0014751589624211192,
            0.04607389494776726,
            118.81249237060547
        ],
        [
            -0.026155469939112663,
            2.0138416290283203,
            -1.2998601198196411,
            -76.3975830078125
        ],
        [
            0.03786167874932289,
            1.2978661060333252,
            2.0169880390167236,
            -89.64775848388672
        ],
        [
            0.0,
            0.0,
            0.0,
            1.0
        ]
    ],
    "dcmmeta_reorient_transform": [
        [
            0.0,
            -1.0,
            0.0,
            95.0
        ],
        [
            1.0,
            0.0,
            0.0,
            0.0
        ],
        [
            0.0,
            0.0,
            1.0,
            0.0
        ],
        [
            0.0,
            0.0,
            0.0,
            1.0
        ]
    ],
    "dcmmeta_shape": [
        96,
        96,
        64,
        518
    ],
    "dcmmeta_slice_dim": 2,
    "dcmmeta_version": 0.6,
    "global": {
        "const": {
            "AcquisitionMatrix": [
                96,
                0,
                0,
                96
            ],
            "AngioFlag": "N",
            "BitsAllocated": 16,
            "BitsStored": 16,
            "BodyPartExamined": "BRAIN",
            "Columns": 768,
            "EchoNumbers": 1,
            "EchoTime": 30.0,
            "EchoTrainLength": 48,
            "FlipAngle": 63.0,
            "HighBit": 15,
            "ImageOrientationPatient": [
                0.99981552226487,
                0.01091706575517,
                0.01580313619292,
                -0.0006157185233,
                0.84056003291826,
                -0.5417180557736
            ],
            "ImagePositionPatient": [
                -923.02816582778,
                -800.35641761192,
                457.01102148803
            ],
            "ImageType": [
                "ORIGINAL",
                "PRIMARY",
                "M",
                "ND",
                "NORM",
                "MOSAIC"
            ],
            "ImagedNucleus": "1H",
            "ImagingFrequency": 123.193527,
            "InPlanePhaseEncodingDirection": "COL",
            "MRAcquisitionType": "2D",
            "MagneticFieldStrength": 3.0,
            "Manufacturer": "SIEMENS",
            "ManufacturerModelName": "Skyra",
            "Modality": "MR",
            "NumberOfAverages": 1.0,
            "NumberOfPhaseEncodingSteps": 96,
            "PercentPhaseFieldOfView": 100.0,
            "PercentSampling": 100.0,
            "PerformedProcedureStepStartTime": "071422.218000",
            "PhotometricInterpretation": "MONOCHROME2",
            "PixelBandwidth": 2005.0,
            "PixelRepresentation": 0,
            "PixelSpacing": [
                2.3958332538605,
                2.3958332538605
            ],
            "ProtocolName": "Resting State fMRI MBEPI_matrix96_BW2004",
            "RepetitionTime": 1160.0,
            "Rows": 768,
            "SAR": 0.09641538853937,
            "SamplesPerPixel": 1,
            "ScanOptions": "FS",
            "ScanningSequence": "EP",
            "SequenceName": "epfid2d1_96",
            "SequenceVariant": "SK",
            "SeriesDescription": "Resting State fMRI MBEPI_matrix96_BW2004",
            "SeriesNumber": 6,
            "SeriesTime": "074127.921000",
            "SliceLocation": -31.682553350424,
            "SliceThickness": 2.0,
            "SmallestImagePixelValue": 0,
            "SoftwareVersions": "syngo MR D11",
            "SpacingBetweenSlices": 2.4000000595481,
            "SpecificCharacterSet": "ISO_IR 100",
            "StudyID": "1",
            "StudyTime": "071422.171000",
            "TransmitCoilName": "Body",
            "VariableFlipAngleFlag": "N",
            "WindowCenterWidthExplanation": "Algo1",
            "dBdt": 0.0
        },
        "slices": {}
    },
    "time": {
        "samples": {
            "AcquisitionNumber": [
                1,
                2,
                3,
                4,
                5,
                6,
                7,
                8,
                9,
                10,
                11,
                12,
                13,
                14,
                15,
                16,
                17,
                18,
                19,
                20,
                21,
                22,
                23,
                24,
                25,
                26,
                27,
                28,
                29,
                30,
                31,
                32,
                33,
                34,
                35,
                36,
                37,
                38,
                39,
                40,
                41,
                42,
                43,
                44,
                45,
                46,
                47,
                48,
                49,
                50,
                51,
                52,
                53,
                54,
                55,
                56,
                57,
                58,
                59,
                60,
                61,
                62,
                63,
                64,
                65,
                66,
                67,
                68,
                69,
                70,
                71,
                72,
                73,
                74,
                75,
                76,
                77,
                78,
                79,
                80,
                81,
                82,
                83,
                84,
                85,
                86,
                87,
                88,
                89,
                90,
                91,
                92,
                93,
                94,
                95,
                96,
                97,
                98,
                99,
                100,
                101,
                102,
                103,
                104,
                105,
                106,
                107,
                108,
                109,
                110,
                111,
                112,
                113,
                114,
                115,
                116,
                117,
                118,
                119,
                120,
                121,
                122,
                123,
                124,
                125,
                126,
                127,
                128,
                129,
                130,
                131,
                132,
                133,
                134,
                135,
                136,
                137,
                138,
                139,
                140,
                141,
                142,
                143,
                144,
                145,
                146,
                147,
                148,
                149,
                150,
                151,
                152,
                153,
                154,
                155,
                156,
                157,
                158,
                159,
                160,
                161,
                162,
                163,
                164,
                165,
                166,
                167,
                168,
                169,
                170,
                171,
                172,
                173,
                174,
                175,
                176,
                177,
                178,
                179,
                180,
                181,
                182,
                183,
                184,
                185,
                186,
                187,
                188,
                189,
                190,
                191,
                192,
                193,
                194,
                195,
                196,
                197,
                198,
                199,
                200,
                201,
                202,
                203,
                204,
                205,
                206,
                207,
                208,
                209,
                210,
                211,
                212,
                213,
                214,
                215,
                216,
                217,
                218,
                219,
                220,
                221,
                222,
                223,
                224,
                225,
                226,
                227,
                228,
                229,
                230,
                231,
                232,
                233,
                234,
                235,
                236,
                237,
                238,
                239,
                240,
                241,
                242,
                243,
                244,
                245,
                246,
                247,
                248,
                249,
                250,
                251,
                252,
                253,
                254,
                255,
                256,
                257,
                258,
                259,
                260,
                261,
                262,
                263,
                264,
                265,
                266,
                267,
                268,
                269,
                270,
                271,
                272,
                273,
                274,
                275,
                276,
                277,
                278,
                279,
                280,
                281,
                282,
                283,
                284,
                285,
                286,
                287,
                288,
                289,
                290,
                291,
                292,
                293,
                294,
                295,
                296,
                297,
                298,
                299,
                300,
                301,
                302,
                303,
                304,
                305,
                306,
                307,
                308,
                309,
                310,
                311,
                312,
                313,
                314,
                315,
                316,
                317,
                318,
                319,
                320,
                321,
                322,
                323,
                324,
                325,
                326,
                327,
                328,
                329,
                330,
                331,
                332,
                333,
                334,
                335,
                336,
                337,
                338,
                339,
                340,
                341,
                342,
                343,
                344,
                345,
                346,
                347,
                348,
                349,
                350,
                351,
                352,
                353,
                354,
                355,
                356,
                357,
                358,
                359,
                360,
                361,
                362,
                363,
                364,
                365,
                366,
                367,
                368,
                369,
                370,
                371,
                372,
                373,
                374,
                375,
                376,
                377,
                378,
                379,
                380,
                381,
                382,
                383,
                384,
                385,
                386,
                387,
                388,
                389,
                390,
                391,
                392,
                393,
                394,
                395,
                396,
                397,
                398,
                399,
                400,
                401,
                402,
                403,
                404,
                405,
                406,
                407,
                408,
                409,
                410,
                411,
                412,
                413,
                414,
                415,
                416,
                417,
                418,
                419,
                420,
                421,
                422,
                423,
                424,
                425,
                426,
                427,
                428,
                429,
                430,
                431,
                432,
                433,
                434,
                435,
                436,
                437,
                438,
                439,
                440,
                441,
                442,
                443,
                444,
                445,
                446,
                447,
                448,
                449,
                450,
                451,
                452,
                453,
                454,
                455,
                456,
                457,
                458,
                459,
                460,
                461,
                462,
                463,
                464,
                465,
                466,
                467,
                468,
                469,
                470,
                471,
                472,
                473,
                474,
                475,
                476,
                477,
                478,
                479,
                480,
                481,
                482,
                483,
                484,
                485,
                486,
                487,
                488,
                489,
                490,
                491,
                492,
                493,
                494,
                495,
                496,
                497,
                498,
                499,
                500,
                501,
                502,
                503,
                504,
                505,
                506,
                507,
                508,
                509,
                510,
                511,
                512,
                513,
                514,
                515,
                516,
                517,
                518
            ],
            "AcquisitionTime": [
                "074049.537500",
                "074118.535000",
                "074119.695000",
                "074120.855000",
                "074122.015000",
                "074123.175000",
                "074124.335000",
                "074125.495000",
                "074126.655000",
                "074127.815000",
                "074128.977500",
                "074130.137500",
                "074131.297500",
                "074132.457500",
                "074133.617500",
                "074134.777500",
                "074135.937500",
                "074137.097500",
                "074138.257500",
                "074139.417500",
                "074140.577500",
                "074141.737500",
                "074142.897500",
                "074144.057500",
                "074145.217500",
                "074146.377500",
                "074147.537500",
                "074148.697500",
                "074149.857500",
                "074151.017500",
                "074152.177500",
                "074153.337500",
                "074154.497500",
                "074155.657500",
                "074156.817500",
                "074157.977500",
                "074159.137500",
                "074200.297500",
                "074201.457500",
                "074202.617500",
                "074203.777500",
                "074204.937500",
                "074206.097500",
                "074207.257500",
                "074208.417500",
                "074209.577500",
                "074210.737500",
                "074211.897500",
                "074213.057500",
                "074214.217500",
                "074215.377500",
                "074216.537500",
                "074217.697500",
                "074218.857500",
                "074220.017500",
                "074221.177500",
                "074222.337500",
                "074223.497500",
                "074224.657500",
                "074225.817500",
                "074226.977500",
                "074228.137500",
                "074229.297500",
                "074230.457500",
                "074231.617500",
                "074232.777500",
                "074233.937500",
                "074235.097500",
                "074236.257500",
                "074237.417500",
                "074238.577500",
                "074239.737500",
                "074240.897500",
                "074242.057500",
                "074243.217500",
                "074244.377500",
                "074245.537500",
                "074246.697500",
                "074247.857500",
                "074249.017500",
                "074250.177500",
                "074251.337500",
                "074252.497500",
                "074253.657500",
                "074254.817500",
                "074255.977500",
                "074257.137500",
                "074258.297500",
                "074259.457500",
                "074300.617500",
                "074301.777500",
                "074302.937500",
                "074304.097500",
                "074305.257500",
                "074306.417500",
                "074307.577500",
                "074308.737500",
                "074309.897500",
                "074311.057500",
                "074312.217500",
                "074313.377500",
                "074314.537500",
                "074315.697500",
                "074316.857500",
                "074318.017500",
                "074319.177500",
                "074320.337500",
                "074321.497500",
                "074322.657500",
                "074323.817500",
                "074324.977500",
                "074326.137500",
                "074327.297500",
                "074328.457500",
                "074329.617500",
                "074330.777500",
                "074331.937500",
                "074333.097500",
                "074334.257500",
                "074335.417500",
                "074336.577500",
                "074337.737500",
                "074338.897500",
                "074340.057500",
                "074341.217500",
                "074342.377500",
                "074343.537500",
                "074344.697500",
                "074345.857500",
                "074347.017500",
                "074348.177500",
                "074349.337500",
                "074350.497500",
                "074351.657500",
                "074352.817500",
                "074353.977500",
                "074355.137500",
                "074356.297500",
                "074357.457500",
                "074358.617500",
                "074359.777500",
                "074400.937500",
                "074402.097500",
                "074403.257500",
                "074404.417500",
                "074405.577500",
                "074406.737500",
                "074407.897500",
                "074409.057500",
                "074410.217500",
                "074411.377500",
                "074412.537500",
                "074413.697500",
                "074414.857500",
                "074416.017500",
                "074417.177500",
                "074418.337500",
                "074419.497500",
                "074420.657500",
                "074421.817500",
                "074422.977500",
                "074424.137500",
                "074425.297500",
                "074426.457500",
                "074427.617500",
                "074428.777500",
                "074429.937500",
                "074431.097500",
                "074432.257500",
                "074433.417500",
                "074434.577500",
                "074435.737500",
                "074436.897500",
                "074438.057500",
                "074439.217500",
                "074440.377500",
                "074441.537500",
                "074442.697500",
                "074443.857500",
                "074445.017500",
                "074446.177500",
                "074447.337500",
                "074448.497500",
                "074449.657500",
                "074450.817500",
                "074451.977500",
                "074453.137500",
                "074454.297500",
                "074455.457500",
                "074456.617500",
                "074457.777500",
                "074458.937500",
                "074500.097500",
                "074501.257500",
                "074502.417500",
                "074503.577500",
                "074504.737500",
                "074505.897500",
                "074507.057500",
                "074508.217500",
                "074509.377500",
                "074510.537500",
                "074511.697500",
                "074512.857500",
                "074514.017500",
                "074515.177500",
                "074516.337500",
                "074517.497500",
                "074518.657500",
                "074519.817500",
                "074520.977500",
                "074522.137500",
                "074523.297500",
                "074524.457500",
                "074525.617500",
                "074526.777500",
                "074527.937500",
                "074529.097500",
                "074530.257500",
                "074531.417500",
                "074532.577500",
                "074533.737500",
                "074534.897500",
                "074536.057500",
                "074537.217500",
                "074538.377500",
                "074539.537500",
                "074540.697500",
                "074541.857500",
                "074543.017500",
                "074544.177500",
                "074545.337500",
                "074546.497500",
                "074547.657500",
                "074548.817500",
                "074549.977500",
                "074551.137500",
                "074552.297500",
                "074553.457500",
                "074554.617500",
                "074555.777500",
                "074556.937500",
                "074558.097500",
                "074559.257500",
                "074600.417500",
                "074601.577500",
                "074602.737500",
                "074603.897500",
                "074605.057500",
                "074606.217500",
                "074607.377500",
                "074608.537500",
                "074609.697500",
                "074610.857500",
                "074612.017500",
                "074613.177500",
                "074614.337500",
                "074615.497500",
                "074616.657500",
                "074617.817500",
                "074618.980000",
                "074620.140000",
                "074621.300000",
                "074622.460000",
                "074623.620000",
                "074624.780000",
                "074625.940000",
                "074627.100000",
                "074628.260000",
                "074629.420000",
                "074630.580000",
                "074631.740000",
                "074632.900000",
                "074634.060000",
                "074635.220000",
                "074636.380000",
                "074637.540000",
                "074638.700000",
                "074639.860000",
                "074641.020000",
                "074642.180000",
                "074643.340000",
                "074644.500000",
                "074645.660000",
                "074646.820000",
                "074647.980000",
                "074649.140000",
                "074650.300000",
                "074651.460000",
                "074652.620000",
                "074653.780000",
                "074654.940000",
                "074656.100000",
                "074657.260000",
                "074658.420000",
                "074659.580000",
                "074700.740000",
                "074701.900000",
                "074703.060000",
                "074704.220000",
                "074705.380000",
                "074706.540000",
                "074707.700000",
                "074708.860000",
                "074710.020000",
                "074711.180000",
                "074712.340000",
                "074713.500000",
                "074714.660000",
                "074715.820000",
                "074716.980000",
                "074718.140000",
                "074719.300000",
                "074720.460000",
                "074721.620000",
                "074722.780000",
                "074723.940000",
                "074725.100000",
                "074726.260000",
                "074727.420000",
                "074728.580000",
                "074729.740000",
                "074730.900000",
                "074732.060000",
                "074733.220000",
                "074734.380000",
                "074735.540000",
                "074736.700000",
                "074737.860000",
                "074739.020000",
                "074740.180000",
                "074741.340000",
                "074742.500000",
                "074743.660000",
                "074744.820000",
                "074745.980000",
                "074747.140000",
                "074748.300000",
                "074749.460000",
                "074750.620000",
                "074751.780000",
                "074752.940000",
                "074754.100000",
                "074755.260000",
                "074756.420000",
                "074757.580000",
