{
    "AcquisitionMatrixPE": 96,
    "AcquisitionNumber": 1,
    "AcquisitionTime": "07:33:26.712500",
    "BandwidthPerPixelPhaseEncode": 33.602,
    "BaseResolution": 96,
    "BodyPartExamined": "BRAIN",
    "ConsistencyInfo": "N4_VD11D_LATEST_20110129",
    "ConversionSoftware": "dcm2niix",
    "ConversionSoftwareVersion": "v1.0.20210317",
    "DerivedVendorReportedEchoSpacing": 0.000620003,
    "DeviceSerialNumber": "45239",
    "DwellTime": 2.6e-06,
    "EchoTime": 0.03,
    "EchoTrainLength": 48,
    "EffectiveEchoSpacing": 0.000310001,
    "FlipAngle": 63,
    "ImageComments": "Unaliased MB4/PE3",
    "ImageOrientationPatientDICOM": [
        0.999997,
        -0.000559364,
        0.00226189,
        0.00154363,
        0.886204,
        -0.463293
    ],
    "ImageType": [
        "ORIGINAL",
        "PRIMARY",
        "M",
        "ND",
        "NORM",
        "MOSAIC"
    ],
    "ImagingFrequency": 123.193,
    "InPlanePhaseEncodingDirectionDICOM": "COL",
    "InstitutionAddress": "E 24th St. 100,Austin,Southmiddle,US,78712",
    "InstitutionName": "Univ of Texas at Austin",
    "InstitutionalDepartmentName": "IRC",
    "MRAcquisitionType": "2D",
    "MagneticFieldStrength": 3,
    "Manufacturer": "Siemens",
    "ManufacturersModelName": "Skyra",
    "Modality": "MR",
    "MultibandAccelerationFactor": 4,
    "ParallelReductionFactorInPlane": 2,
    "PartialFourier": 1,
    "PatientPosition": "HFS",
    "PercentPhaseFOV": 100,
    "PercentSampling": 100,
    "PhaseEncodingDirection": "j-",
    "PhaseEncodingSteps": 96,
    "PhaseResolution": 1,
    "PixelBandwidth": 2005,
    "ProcedureStepDescription": "Poldrack2^self-scanning",
    "ProtocolName": "Resting State fMRI MBEPI_matrix96_BW2004",
    "PulseSequenceDetails": "%CustomerSeq%\\cmrr_mbep2d_bold",
    "ReceiveCoilActiveElements": "HEA;HEP",
    "ReceiveCoilName": "Head_32",
    "ReconMatrixPE": 96,
    "RefLinesPE": 94,
    "RepetitionTime": 1.16,
    "SAR": 0.095257,
    "ScanOptions": "FS",
    "ScanningSequence": "EP",
    "SequenceName": "epfid2d1_96",
    "SequenceVariant": "SK",
    "SeriesDescription": "Resting State fMRI MBEPI_matrix96_BW2004",
    "SeriesNumber": 6,
    "ShimSetting": [
        -2811,
        7978,
        -15423,
        199,
        -259,
        -46,
        308,
        -86
    ],
    "SliceThickness": 2,
    "SliceTiming": [
        0,
        0.5,
        0.9975,
        0.3575,
        0.855,
        0.215,
        0.7125,
        0.0725,
        0.57,
        1.07,
        0.4275,
        0.9275,
        0.285,
        0.785,
        0.1425,
        0.6425,
        0,
        0.5,
        0.9975,
        0.3575,
        0.855,
        0.215,
        0.7125,
        0.0725,
        0.57,
        1.07,
        0.4275,
        0.9275,
        0.285,
        0.785,
        0.1425,
        0.6425,
        0,
        0.5,
        0.9975,
        0.3575,
        0.855,
        0.215,
        0.7125,
        0.0725,
        0.57,
        1.07,
        0.4275,
        0.9275,
        0.285,
        0.785,
        0.1425,
        0.6425,
        0,
        0.5,
        0.9975,
        0.3575,
        0.855,
        0.215,
        0.7125,
        0.0725,
        0.57,
        1.07,
        0.4275,
        0.9275,
        0.285,
        0.785,
        0.1425,
        0.6425
    ],
    "SoftwareVersions": "syngo MR D11",
    "SpacingBetweenSlices": 2.4,
    "StationName": "AWP45239",
    "TaskName": "Resting fmri",
    "TotalReadoutTime": 0.0294501,
    "TxRefAmp": 334.309,
    "WipMemBlock": "7a0764ed-87bf-4554-9550-126111790125||Sequence: VD11D r206; Feb 13 2013 18:52:04 by eja",
    "dcmmeta_affine": [
        [
            -2.395826816558838,
            0.0036982835736125708,
            0.004188827238976955,
            118.44811248779297
        ],
        [
            0.0013401418691501021,
            2.123196601867676,
            -1.1119087934494019,
            -79.45734405517578
        ],
        [
            0.005419107154011726,
            1.1099729537963867,
            2.126885414123535,
            -76.36090087890625
        ],
        [
            0.0,
            0.0,
            0.0,
            1.0
        ]
    ],
    "dcmmeta_reorient_transform": [
        [
            0.0,
            -1.0,
            0.0,
            95.0
        ],
        [
            1.0,
            0.0,
            0.0,
            0.0
        ],
        [
            0.0,
            0.0,
            1.0,
            0.0
        ],
        [
            0.0,
            0.0,
            0.0,
            1.0
        ]
    ],
    "dcmmeta_shape": [
        96,
        96,
        64,
        518
    ],
    "dcmmeta_slice_dim": 2,
    "dcmmeta_version": 0.6,
    "global": {
        "const": {
            "AcquisitionMatrix": [
                96,
                0,
                0,
                96
            ],
            "AngioFlag": "N",
            "BitsAllocated": 16,
            "BitsStored": 16,
            "BodyPartExamined": "BRAIN",
            "Columns": 768,
            "EchoNumbers": 1,
            "EchoTime": 30.0,
            "EchoTrainLength": 48,
            "FlipAngle": 63.0,
            "HighBit": 15,
            "ImageOrientationPatient": [
                0.99999728548321,
                -0.0005593635795,
                0.00226188827969,
                0.0015436314887,
                0.88620378177291,
                -0.4632930761119
            ],
            "ImagePositionPatient": [
                -925.03985812287,
                -835.19005641441,
                400.21662040173
            ],
            "ImageType": [
                "ORIGINAL",
                "PRIMARY",
                "M",
                "ND",
                "NORM",
                "MOSAIC"
            ],
            "ImagedNucleus": "1H",
            "ImagingFrequency": 123.193161,
            "InPlanePhaseEncodingDirection": "COL",
            "MRAcquisitionType": "2D",
            "MagneticFieldStrength": 3.0,
            "Manufacturer": "SIEMENS",
            "ManufacturerModelName": "Skyra",
            "Modality": "MR",
            "NumberOfAverages": 1.0,
            "NumberOfPhaseEncodingSteps": 96,
            "PercentPhaseFieldOfView": 100.0,
            "PercentSampling": 100.0,
            "PerformedProcedureStepStartTime": "072317.093000",
            "PhotometricInterpretation": "MONOCHROME2",
            "PixelBandwidth": 2005.0,
            "PixelRepresentation": 0,
            "PixelSpacing": [
                2.3958332538605,
                2.3958332538605
            ],
            "ProtocolName": "Resting State fMRI MBEPI_matrix96_BW2004",
            "RepetitionTime": 1160.0,
            "Rows": 768,
            "SAR": 0.09525698658521,
            "SamplesPerPixel": 1,
            "ScanOptions": "FS",
            "ScanningSequence": "EP",
            "SequenceName": "epfid2d1_96",
            "SequenceVariant": "SK",
            "SeriesDescription": "Resting State fMRI MBEPI_matrix96_BW2004",
            "SeriesNumber": 6,
            "SeriesTime": "073405.625000",
            "SliceLocation": -30.652257391269,
            "SliceThickness": 2.0,
            "SmallestImagePixelValue": 0,
            "SoftwareVersions": "syngo MR D11",
            "SpacingBetweenSlices": 2.4000000361328,
            "SpecificCharacterSet": "ISO_IR 100",
            "StudyID": "1",
            "StudyTime": "072316.953000",
            "TransmitCoilName": "Body",
            "VariableFlipAngleFlag": "N",
            "WindowCenterWidthExplanation": "Algo1",
            "dBdt": 0.0
        },
        "slices": {}
    },
    "time": {
        "samples": {
            "AcquisitionNumber": [
                1,
                2,
                3,
                4,
                5,
                6,
                7,
                8,
                9,
                10,
                11,
                12,
                13,
                14,
                15,
                16,
                17,
                18,
                19,
                20,
                21,
                22,
                23,
                24,
                25,
                26,
                27,
                28,
                29,
                30,
                31,
                32,
                33,
                34,
                35,
                36,
                37,
                38,
                39,
                40,
                41,
                42,
                43,
                44,
                45,
                46,
                47,
                48,
                49,
                50,
                51,
                52,
                53,
                54,
                55,
                56,
                57,
                58,
                59,
                60,
                61,
                62,
                63,
                64,
                65,
                66,
                67,
                68,
                69,
                70,
                71,
                72,
                73,
                74,
                75,
                76,
                77,
                78,
                79,
                80,
                81,
                82,
                83,
                84,
                85,
                86,
                87,
                88,
                89,
                90,
                91,
                92,
                93,
                94,
                95,
                96,
                97,
                98,
                99,
                100,
                101,
                102,
                103,
                104,
                105,
                106,
                107,
                108,
                109,
                110,
                111,
                112,
                113,
                114,
                115,
                116,
                117,
                118,
                119,
                120,
                121,
                122,
                123,
                124,
                125,
                126,
                127,
                128,
                129,
                130,
                131,
                132,
                133,
                134,
                135,
                136,
                137,
                138,
                139,
                140,
                141,
                142,
                143,
                144,
                145,
                146,
                147,
                148,
                149,
                150,
                151,
                152,
                153,
                154,
                155,
                156,
                157,
                158,
                159,
                160,
                161,
                162,
                163,
                164,
                165,
                166,
                167,
                168,
                169,
                170,
                171,
                172,
                173,
                174,
                175,
                176,
                177,
                178,
                179,
                180,
                181,
                182,
                183,
                184,
                185,
                186,
                187,
                188,
                189,
                190,
                191,
                192,
                193,
                194,
                195,
                196,
                197,
                198,
                199,
                200,
                201,
                202,
                203,
                204,
                205,
                206,
                207,
                208,
                209,
                210,
                211,
                212,
                213,
                214,
                215,
                216,
                217,
                218,
                219,
                220,
                221,
                222,
                223,
                224,
                225,
                226,
                227,
                228,
                229,
                230,
                231,
                232,
                233,
                234,
                235,
                236,
                237,
                238,
                239,
                240,
                241,
                242,
                243,
                244,
                245,
                246,
                247,
                248,
                249,
                250,
                251,
                252,
                253,
                254,
                255,
                256,
                257,
                258,
                259,
                260,
                261,
                262,
                263,
                264,
                265,
                266,
                267,
                268,
                269,
                270,
                271,
                272,
                273,
                274,
                275,
                276,
                277,
                278,
                279,
                280,
                281,
                282,
                283,
                284,
                285,
                286,
                287,
                288,
                289,
                290,
                291,
                292,
                293,
                294,
                295,
                296,
                297,
                298,
                299,
                300,
                301,
                302,
                303,
                304,
                305,
                306,
                307,
                308,
                309,
                310,
                311,
                312,
                313,
                314,
                315,
                316,
                317,
                318,
                319,
                320,
                321,
                322,
                323,
                324,
                325,
                326,
                327,
                328,
                329,
                330,
                331,
                332,
                333,
                334,
                335,
                336,
                337,
                338,
                339,
                340,
                341,
                342,
                343,
                344,
                345,
                346,
                347,
                348,
                349,
                350,
                351,
                352,
                353,
                354,
                355,
                356,
                357,
                358,
                359,
                360,
                361,
                362,
                363,
                364,
                365,
                366,
                367,
                368,
                369,
                370,
                371,
                372,
                373,
                374,
                375,
                376,
                377,
                378,
                379,
                380,
                381,
                382,
                383,
                384,
                385,
                386,
                387,
                388,
                389,
                390,
                391,
                392,
                393,
                394,
                395,
                396,
                397,
                398,
                399,
                400,
                401,
                402,
                403,
                404,
                405,
                406,
                407,
                408,
                409,
                410,
                411,
                412,
                413,
                414,
                415,
                416,
                417,
                418,
                419,
                420,
                421,
                422,
                423,
                424,
                425,
                426,
                427,
                428,
                429,
                430,
                431,
                432,
                433,
                434,
                435,
                436,
                437,
                438,
                439,
                440,
                441,
                442,
                443,
                444,
                445,
                446,
                447,
                448,
                449,
                450,
                451,
                452,
                453,
                454,
                455,
                456,
                457,
                458,
                459,
                460,
                461,
                462,
                463,
                464,
                465,
                466,
                467,
                468,
                469,
                470,
                471,
                472,
                473,
                474,
                475,
                476,
                477,
                478,
                479,
                480,
                481,
                482,
                483,
                484,
                485,
                486,
                487,
                488,
                489,
                490,
                491,
                492,
                493,
                494,
                495,
                496,
                497,
                498,
                499,
                500,
                501,
                502,
                503,
                504,
                505,
                506,
                507,
                508,
                509,
                510,
                511,
                512,
                513,
                514,
                515,
                516,
                517,
                518
            ],
            "AcquisitionTime": [
                "073326.712500",
                "073355.712500",
                "073356.872500",
                "073358.032500",
                "073359.192500",
                "073400.352500",
                "073401.512500",
                "073402.672500",
                "073403.832500",
                "073404.992500",
                "073406.152500",
                "073407.312500",
                "073408.472500",
                "073409.632500",
                "073410.792500",
                "073411.952500",
                "073413.112500",
                "073414.272500",
                "073415.432500",
                "073416.592500",
                "073417.752500",
                "073418.912500",
                "073420.072500",
                "073421.232500",
                "073422.392500",
                "073423.552500",
                "073424.712500",
                "073425.872500",
                "073427.032500",
                "073428.192500",
                "073429.352500",
                "073430.512500",
                "073431.672500",
                "073432.832500",
                "073433.992500",
                "073435.152500",
                "073436.312500",
                "073437.472500",
                "073438.632500",
                "073439.792500",
                "073440.952500",
                "073442.112500",
                "073443.272500",
                "073444.432500",
                "073445.592500",
                "073446.752500",
                "073447.912500",
                "073449.072500",
                "073450.232500",
                "073451.392500",
                "073452.552500",
                "073453.712500",
                "073454.872500",
                "073456.032500",
                "073457.192500",
                "073458.352500",
                "073459.512500",
                "073500.672500",
                "073501.832500",
                "073502.992500",
                "073504.152500",
                "073505.312500",
                "073506.472500",
                "073507.632500",
                "073508.792500",
                "073509.952500",
                "073511.112500",
                "073512.272500",
                "073513.432500",
                "073514.592500",
                "073515.752500",
                "073516.912500",
                "073518.072500",
                "073519.232500",
                "073520.392500",
                "073521.555000",
                "073522.715000",
                "073523.875000",
                "073525.035000",
                "073526.195000",
                "073527.355000",
                "073528.515000",
                "073529.675000",
                "073530.835000",
                "073531.995000",
                "073533.155000",
                "073534.315000",
                "073535.475000",
                "073536.635000",
                "073537.795000",
                "073538.955000",
                "073540.115000",
                "073541.275000",
                "073542.435000",
                "073543.595000",
                "073544.755000",
                "073545.915000",
                "073547.075000",
                "073548.235000",
                "073549.395000",
                "073550.555000",
                "073551.715000",
                "073552.875000",
                "073554.035000",
                "073555.195000",
                "073556.355000",
                "073557.515000",
                "073558.675000",
                "073559.835000",
                "073600.995000",
                "073602.155000",
                "073603.315000",
                "073604.475000",
                "073605.635000",
                "073606.795000",
                "073607.955000",
                "073609.115000",
                "073610.275000",
                "073611.435000",
                "073612.595000",
                "073613.755000",
                "073614.915000",
                "073616.075000",
                "073617.235000",
                "073618.395000",
                "073619.555000",
                "073620.715000",
                "073621.875000",
                "073623.035000",
                "073624.195000",
                "073625.355000",
                "073626.515000",
                "073627.675000",
                "073628.835000",
                "073629.995000",
                "073631.155000",
                "073632.315000",
                "073633.475000",
                "073634.635000",
                "073635.795000",
                "073636.955000",
                "073638.115000",
                "073639.275000",
                "073640.435000",
                "073641.595000",
                "073642.755000",
                "073643.915000",
                "073645.075000",
                "073646.235000",
                "073647.395000",
                "073648.555000",
                "073649.715000",
                "073650.875000",
                "073652.035000",
                "073653.195000",
                "073654.355000",
                "073655.515000",
                "073656.675000",
                "073657.835000",
                "073658.995000",
                "073700.155000",
                "073701.315000",
                "073702.475000",
                "073703.635000",
                "073704.795000",
                "073705.955000",
                "073707.115000",
                "073708.275000",
                "073709.435000",
                "073710.595000",
                "073711.755000",
                "073712.915000",
                "073714.075000",
                "073715.235000",
                "073716.395000",
                "073717.555000",
                "073718.715000",
                "073719.875000",
                "073721.035000",
                "073722.195000",
                "073723.355000",
                "073724.515000",
                "073725.675000",
                "073726.835000",
                "073727.995000",
                "073729.155000",
                "073730.315000",
                "073731.475000",
                "073732.635000",
                "073733.795000",
                "073734.955000",
                "073736.115000",
                "073737.275000",
                "073738.435000",
                "073739.595000",
                "073740.755000",
                "073741.915000",
                "073743.075000",
                "073744.235000",
                "073745.395000",
                "073746.555000",
                "073747.715000",
                "073748.875000",
                "073750.035000",
                "073751.195000",
                "073752.355000",
                "073753.515000",
                "073754.675000",
                "073755.835000",
                "073756.995000",
                "073758.155000",
                "073759.315000",
                "073800.475000",
                "073801.635000",
                "073802.795000",
                "073803.955000",
                "073805.115000",
                "073806.275000",
                "073807.435000",
                "073808.595000",
                "073809.755000",
                "073810.915000",
                "073812.075000",
                "073813.235000",
                "073814.395000",
                "073815.555000",
                "073816.715000",
                "073817.875000",
                "073819.035000",
                "073820.195000",
                "073821.355000",
                "073822.515000",
                "073823.675000",
                "073824.835000",
                "073825.995000",
                "073827.155000",
                "073828.315000",
                "073829.475000",
                "073830.635000",
                "073831.795000",
                "073832.955000",
                "073834.115000",
                "073835.275000",
                "073836.435000",
                "073837.595000",
                "073838.755000",
                "073839.915000",
                "073841.075000",
                "073842.235000",
                "073843.395000",
                "073844.555000",
                "073845.715000",
                "073846.875000",
                "073848.035000",
                "073849.195000",
                "073850.355000",
                "073851.515000",
                "073852.675000",
                "073853.835000",
                "073854.995000",
                "073856.155000",
                "073857.315000",
                "073858.475000",
                "073859.635000",
                "073900.795000",
                "073901.955000",
                "073903.115000",
                "073904.275000",
                "073905.435000",
                "073906.595000",
                "073907.755000",
                "073908.915000",
                "073910.075000",
                "073911.235000",
                "073912.395000",
                "073913.555000",
                "073914.715000",
                "073915.875000",
                "073917.035000",
                "073918.195000",
                "073919.355000",
                "073920.515000",
                "073921.675000",
                "073922.835000",
                "073923.995000",
                "073925.155000",
                "073926.315000",
                "073927.475000",
                "073928.635000",
                "073929.795000",
                "073930.955000",
                "073932.115000",
                "073933.275000",
                "073934.435000",
                "073935.595000",
                "073936.755000",
                "073937.915000",
                "073939.075000",
                "073940.235000",
                "073941.395000",
                "073942.555000",
                "073943.715000",
                "073944.875000",
                "073946.035000",
                "073947.195000",
                "073948.355000",
                "073949.515000",
                "073950.675000",
                "073951.835000",
                "073952.995000",
                "073954.155000",
                "073955.315000",
                "073956.475000",
                "073957.635000",
                "073958.795000",
                "073959.955000",
                "074001.115000",
                "074002.275000",
                "074003.435000",
                "074004.595000",
                "074005.755000",
                "074006.915000",
                "074008.075000",
                "074009.235000",
                "074010.395000",
                "074011.557500",
                "074012.717500",
                "074013.877500",
                "074015.037500",
                "074016.197500",
                "074017.357500",
                "074018.517500",
                "074019.677500",
                "074020.837500",
                "074021.997500",
                "074023.157500",
                "074024.317500",
                "074025.477500",
                "074026.637500",
                "074027.797500",
                "074028.957500",
                "074030.117500",
                "074031.277500",
                "074032.437500",
                "074033.597500",
                "074034.757500",
