{
    "AcquisitionMatrixPE": 96,
    "AcquisitionNumber": 1,
    "AcquisitionTime": "07:35:38.837500",
    "BandwidthPerPixelPhaseEncode": 33.602,
    "BaseResolution": 96,
    "BodyPartExamined": "BRAIN",
    "ConsistencyInfo": "N4_VD13A_LATEST_20120616",
    "ConversionSoftware": "dcm2niix",
    "ConversionSoftwareVersion": "v1.0.20210317",
    "DerivedVendorReportedEchoSpacing": 0.000620003,
    "DeviceSerialNumber": "45239",
    "DwellTime": 2.6e-06,
    "EchoTime": 0.03,
    "EchoTrainLength": 47,
    "EffectiveEchoSpacing": 0.000310001,
    "FlipAngle": 63,
    "ImageComments": "Unaliased MB4/PE3",
    "ImageOrientationPatientDICOM": [
        0.99988,
        -0.0016182,
        -0.0153832,
        -0.00665733,
        0.85267,
        -0.522408
    ],
    "ImageType": [
        "ORIGINAL",
        "PRIMARY",
        "M",
        "ND",
        "NORM",
        "MOSAIC"
    ],
    "ImagingFrequency": 123.193,
    "InPlanePhaseEncodingDirectionDICOM": "COL",
    "InstitutionAddress": "E 24th St. 100,Austin,Southmiddle,US,78712",
    "InstitutionName": "Univ of Texas at Austin",
    "InstitutionalDepartmentName": "IRC",
    "MRAcquisitionType": "2D",
    "MagneticFieldStrength": 3,
    "Manufacturer": "Siemens",
    "ManufacturersModelName": "Skyra",
    "Modality": "MR",
    "MultibandAccelerationFactor": 4,
    "ParallelReductionFactorInPlane": 2,
    "PartialFourier": 1,
    "PatientPosition": "HFS",
    "PercentPhaseFOV": 100,
    "PercentSampling": 100,
    "PhaseEncodingDirection": "j-",
    "PhaseEncodingSteps": 95,
    "PhaseResolution": 1,
    "PixelBandwidth": 2005,
    "ProcedureStepDescription": "Poldrack2^self-scanning",
    "ProtocolName": "Resting State fMRI MBEPI_matrix96_BW2004",
    "PulseSequenceDetails": "%CustomerSeq%\\cmrr_mbep2d_bold",
    "ReceiveCoilActiveElements": "HEA;HEP",
    "ReceiveCoilName": "Head_32",
    "ReconMatrixPE": 96,
    "RefLinesPE": 48,
    "RepetitionTime": 1.16,
    "SAR": 0.120395,
    "ScanOptions": "FS",
    "ScanningSequence": "EP",
    "SequenceName": "epfid2d1_96",
    "SequenceVariant": "SK",
    "SeriesDescription": "Resting State fMRI MBEPI_matrix96_BW2004",
    "SeriesNumber": 6,
    "ShimSetting": [
        -2779,
        8044,
        -15492,
        -120,
        -344,
        207,
        153,
        0
    ],
    "SliceThickness": 2,
    "SliceTiming": [
        0,
        0.5,
        0.9975,
        0.3575,
        0.855,
        0.215,
        0.7125,
        0.0725,
        0.57,
        1.07,
        0.4275,
        0.9275,
        0.285,
        0.785,
        0.1425,
        0.6425,
        0,
        0.5,
        0.9975,
        0.3575,
        0.855,
        0.215,
        0.7125,
        0.0725,
        0.57,
        1.07,
        0.4275,
        0.9275,
        0.285,
        0.785,
        0.1425,
        0.6425,
        0,
        0.5,
        0.9975,
        0.3575,
        0.855,
        0.215,
        0.7125,
        0.0725,
        0.57,
        1.07,
        0.4275,
        0.9275,
        0.285,
        0.785,
        0.1425,
        0.6425,
        0,
        0.5,
        0.9975,
        0.3575,
        0.855,
        0.215,
        0.7125,
        0.0725,
        0.57,
        1.07,
        0.4275,
        0.9275,
        0.285,
        0.785,
        0.1425,
        0.6425
    ],
    "SoftwareVersions": "syngo MR D13",
    "SpacingBetweenSlices": 2.4,
    "StationName": "AWP45239",
    "TaskName": "Resting fmri",
    "TotalReadoutTime": 0.0294501,
    "TxRefAmp": 340.361,
    "WipMemBlock": "5961ac6e-04c4-4b12-93ad-261b8881a7e8||Sequence: vd13a/R010 r/fd129fc; Dec 13 2013 16:14:27 by eja",
    "dcmmeta_affine": [
        [
            -2.3955466747283936,
            -0.01594984345138073,
            -0.03350924700498581,
            116.04380798339844
        ],
        [
            0.0038769450038671494,
            2.0428547859191895,
            -1.2538743019104004,
            -79.4041748046875
        ],
        [
            -0.03685567528009415,
            1.2516018152236938,
            2.0461368560791016,
            -82.49705505371094
        ],
        [
            0.0,
            0.0,
            0.0,
            1.0
        ]
    ],
    "dcmmeta_reorient_transform": [
        [
            0.0,
            -1.0,
            0.0,
            95.0
        ],
        [
            1.0,
            0.0,
            0.0,
            0.0
        ],
        [
            0.0,
            0.0,
            1.0,
            0.0
        ],
        [
            0.0,
            0.0,
            0.0,
            1.0
        ]
    ],
    "dcmmeta_shape": [
        96,
        96,
        64,
        518
    ],
    "dcmmeta_slice_dim": 2,
    "dcmmeta_version": 0.6,
    "global": {
        "const": {
            "AcquisitionMatrix": [
                96,
                0,
                0,
                96
            ],
            "AngioFlag": "N",
            "BitsAllocated": 16,
            "BitsStored": 16,
            "BodyPartExamined": "BRAIN",
            "Columns": 768,
            "DeidentificationMethodCodeSequence": [
                {
                    "CodeMeaning": "XNAT Edit Script",
                    "CodeValue": "93",
                    "CodingSchemeDesignator": "XNAT",
                    "CodingSchemeVersion": "0.1"
                }
            ],
            "EchoNumbers": 1,
            "EchoTime": 30.0,
            "EchoTrainLength": 47,
            "FlipAngle": 63.0,
            "HighBit": 15,
            "ImageOrientationPatient": [
                0.99988036152186,
                -0.0016182031566,
                -0.0153832396281,
                -0.0066573265337,
                0.85266984088003,
                -0.5224077166898
            ],
            "ImagePositionPatient": [
                -914.07308635755,
                -799.76357562792,
                469.32681981819
            ],
            "ImageType": [
                "ORIGINAL",
                "PRIMARY",
                "M",
                "ND",
                "NORM",
                "MOSAIC"
            ],
            "ImagedNucleus": "1H",
            "ImagingFrequency": 123.192868,
            "InPlanePhaseEncodingDirection": "COL",
            "MRAcquisitionType": "2D",
            "MagneticFieldStrength": 3.0,
            "Manufacturer": "SIEMENS",
            "ManufacturerModelName": "Skyra",
            "Modality": "MR",
            "NumberOfAverages": 1.0,
            "NumberOfPhaseEncodingSteps": 95,
            "PercentPhaseFieldOfView": 100.0,
            "PercentSampling": 100.0,
            "PerformedProcedureStepStartTime": "071749.189000",
            "PhotometricInterpretation": "MONOCHROME2",
            "PixelBandwidth": 2005.0,
            "PixelRepresentation": 0,
            "PixelSpacing": [
                2.3958332538605,
                2.3958332538605
            ],
            "ProtocolName": "Resting State fMRI MBEPI_matrix96_BW2004",
            "RepetitionTime": 1160.0,
            "Rows": 768,
            "SAR": 0.12039468935037,
            "SamplesPerPixel": 1,
            "ScanOptions": "FS",
            "ScanningSequence": "EP",
            "SequenceName": "epfid2d1_96",
            "SequenceVariant": "SK",
            "SeriesDescription": "Resting State fMRI MBEPI_matrix96_BW2004",
            "SeriesNumber": 6,
            "SeriesTime": "073622.742000",
            "SliceLocation": -30.469149936862,
            "SliceThickness": 2.0,
            "SmallestImagePixelValue": 0,
            "SoftwareVersions": "syngo MR D13",
            "SpacingBetweenSlices": 2.3999999863073,
            "SpecificCharacterSet": "ISO_IR 100",
            "StudyID": "1",
            "StudyTime": "071749.112000",
            "TransmitCoilName": "Body",
            "VariableFlipAngleFlag": "N",
            "WindowCenterWidthExplanation": "Algo1",
            "dBdt": 0.0
        },
        "slices": {}
    },
    "time": {
        "samples": {
            "AcquisitionNumber": [
                1,
                2,
                3,
                4,
                5,
                6,
                7,
                8,
                9,
                10,
                11,
                12,
                13,
                14,
                15,
                16,
                17,
                18,
                19,
                20,
                21,
                22,
                23,
                24,
                25,
                26,
                27,
                28,
                29,
                30,
                31,
                32,
                33,
                34,
                35,
                36,
                37,
                38,
                39,
                40,
                41,
                42,
                43,
                44,
                45,
                46,
                47,
                48,
                49,
                50,
                51,
                52,
                53,
                54,
                55,
                56,
                57,
                58,
                59,
                60,
                61,
                62,
                63,
                64,
                65,
                66,
                67,
                68,
                69,
                70,
                71,
                72,
                73,
                74,
                75,
                76,
                77,
                78,
                79,
                80,
                81,
                82,
                83,
                84,
                85,
                86,
                87,
                88,
                89,
                90,
                91,
                92,
                93,
                94,
                95,
                96,
                97,
                98,
                99,
                100,
                101,
                102,
                103,
                104,
                105,
                106,
                107,
                108,
                109,
                110,
                111,
                112,
                113,
                114,
                115,
                116,
                117,
                118,
                119,
                120,
                121,
                122,
                123,
                124,
                125,
                126,
                127,
                128,
                129,
                130,
                131,
                132,
                133,
                134,
                135,
                136,
                137,
                138,
                139,
                140,
                141,
                142,
                143,
                144,
                145,
                146,
                147,
                148,
                149,
                150,
                151,
                152,
                153,
                154,
                155,
                156,
                157,
                158,
                159,
                160,
                161,
                162,
                163,
                164,
                165,
                166,
                167,
                168,
                169,
                170,
                171,
                172,
                173,
                174,
                175,
                176,
                177,
                178,
                179,
                180,
                181,
                182,
                183,
                184,
                185,
                186,
                187,
                188,
                189,
                190,
                191,
                192,
                193,
                194,
                195,
                196,
                197,
                198,
                199,
                200,
                201,
                202,
                203,
                204,
                205,
                206,
                207,
                208,
                209,
                210,
                211,
                212,
                213,
                214,
                215,
                216,
                217,
                218,
                219,
                220,
                221,
                222,
                223,
                224,
                225,
                226,
                227,
                228,
                229,
                230,
                231,
                232,
                233,
                234,
                235,
                236,
                237,
                238,
                239,
                240,
                241,
                242,
                243,
                244,
                245,
                246,
                247,
                248,
                249,
                250,
                251,
                252,
                253,
                254,
                255,
                256,
                257,
                258,
                259,
                260,
                261,
                262,
                263,
                264,
                265,
                266,
                267,
                268,
                269,
                270,
                271,
                272,
                273,
                274,
                275,
                276,
                277,
                278,
                279,
                280,
                281,
                282,
                283,
                284,
                285,
                286,
                287,
                288,
                289,
                290,
                291,
                292,
                293,
                294,
                295,
                296,
                297,
                298,
                299,
                300,
                301,
                302,
                303,
                304,
                305,
                306,
                307,
                308,
                309,
                310,
                311,
                312,
                313,
                314,
                315,
                316,
                317,
                318,
                319,
                320,
                321,
                322,
                323,
                324,
                325,
                326,
                327,
                328,
                329,
                330,
                331,
                332,
                333,
                334,
                335,
                336,
                337,
                338,
                339,
                340,
                341,
                342,
                343,
                344,
                345,
                346,
                347,
                348,
                349,
                350,
                351,
                352,
                353,
                354,
                355,
                356,
                357,
                358,
                359,
                360,
                361,
                362,
                363,
                364,
                365,
                366,
                367,
                368,
                369,
                370,
                371,
                372,
                373,
                374,
                375,
                376,
                377,
                378,
                379,
                380,
                381,
                382,
                383,
                384,
                385,
                386,
                387,
                388,
                389,
                390,
                391,
                392,
                393,
                394,
                395,
                396,
                397,
                398,
                399,
                400,
                401,
                402,
                403,
                404,
                405,
                406,
                407,
                408,
                409,
                410,
                411,
                412,
                413,
                414,
                415,
                416,
                417,
                418,
                419,
                420,
                421,
                422,
                423,
                424,
                425,
                426,
                427,
                428,
                429,
                430,
                431,
                432,
                433,
                434,
                435,
                436,
                437,
                438,
                439,
                440,
                441,
                442,
                443,
                444,
                445,
                446,
                447,
                448,
                449,
                450,
                451,
                452,
                453,
                454,
                455,
                456,
                457,
                458,
                459,
                460,
                461,
                462,
                463,
                464,
                465,
                466,
                467,
                468,
                469,
                470,
                471,
                472,
                473,
                474,
                475,
                476,
                477,
                478,
                479,
                480,
                481,
                482,
                483,
                484,
                485,
                486,
                487,
                488,
                489,
                490,
                491,
                492,
                493,
                494,
                495,
                496,
                497,
                498,
                499,
                500,
                501,
                502,
                503,
                504,
                505,
                506,
                507,
                508,
                509,
                510,
                511,
                512,
                513,
                514,
                515,
                516,
                517,
                518
            ],
            "AcquisitionTime": [
                "073538.837500",
                "073545.777500",
                "073546.937500",
                "073548.097500",
                "073549.257500",
                "073550.417500",
                "073551.577500",
                "073552.737500",
                "073553.897500",
                "073555.057500",
                "073556.217500",
                "073557.377500",
                "073558.537500",
                "073559.697500",
                "073600.857500",
                "073602.017500",
                "073603.177500",
                "073604.337500",
                "073605.497500",
                "073606.657500",
                "073607.817500",
                "073608.977500",
                "073610.137500",
                "073611.297500",
                "073612.457500",
                "073613.617500",
                "073614.777500",
                "073615.937500",
                "073617.097500",
                "073618.257500",
                "073619.417500",
                "073620.577500",
                "073621.737500",
                "073622.897500",
                "073624.057500",
                "073625.217500",
                "073626.377500",
                "073627.537500",
                "073628.697500",
                "073629.857500",
                "073631.017500",
                "073632.177500",
                "073633.337500",
                "073634.497500",
                "073635.657500",
                "073636.817500",
                "073637.977500",
                "073639.137500",
                "073640.297500",
                "073641.457500",
                "073642.617500",
                "073643.777500",
                "073644.937500",
                "073646.097500",
                "073647.257500",
                "073648.417500",
                "073649.577500",
                "073650.737500",
                "073651.897500",
                "073653.057500",
                "073654.217500",
                "073655.377500",
                "073656.537500",
                "073657.697500",
                "073658.857500",
                "073700.017500",
                "073701.177500",
                "073702.337500",
                "073703.497500",
                "073704.657500",
                "073705.817500",
                "073706.977500",
                "073708.137500",
                "073709.297500",
                "073710.457500",
                "073711.617500",
                "073712.777500",
                "073713.937500",
                "073715.097500",
                "073716.257500",
                "073717.417500",
                "073718.577500",
                "073719.737500",
                "073720.897500",
                "073722.057500",
                "073723.217500",
                "073724.377500",
                "073725.540000",
                "073726.700000",
                "073727.860000",
                "073729.020000",
                "073730.180000",
                "073731.340000",
                "073732.500000",
                "073733.660000",
                "073734.820000",
                "073735.980000",
                "073737.140000",
                "073738.300000",
                "073739.460000",
                "073740.620000",
                "073741.780000",
                "073742.940000",
                "073744.100000",
                "073745.260000",
                "073746.420000",
                "073747.580000",
                "073748.740000",
                "073749.900000",
                "073751.060000",
                "073752.220000",
                "073753.380000",
                "073754.540000",
                "073755.700000",
                "073756.860000",
                "073758.020000",
                "073759.180000",
                "073800.340000",
                "073801.500000",
                "073802.660000",
                "073803.820000",
                "073804.980000",
                "073806.140000",
                "073807.300000",
                "073808.460000",
                "073809.620000",
                "073810.780000",
                "073811.940000",
                "073813.100000",
                "073814.260000",
                "073815.420000",
                "073816.580000",
                "073817.740000",
                "073818.900000",
                "073820.060000",
                "073821.220000",
                "073822.380000",
                "073823.540000",
                "073824.700000",
                "073825.860000",
                "073827.020000",
                "073828.180000",
                "073829.340000",
                "073830.500000",
                "073831.660000",
                "073832.820000",
                "073833.980000",
                "073835.140000",
                "073836.300000",
                "073837.460000",
                "073838.620000",
                "073839.780000",
                "073840.940000",
                "073842.100000",
                "073843.260000",
                "073844.420000",
                "073845.580000",
                "073846.740000",
                "073847.900000",
                "073849.060000",
                "073850.220000",
                "073851.380000",
                "073852.540000",
                "073853.700000",
                "073854.860000",
                "073856.020000",
                "073857.180000",
                "073858.340000",
                "073859.500000",
                "073900.660000",
                "073901.820000",
                "073902.980000",
                "073904.140000",
                "073905.300000",
                "073906.460000",
                "073907.620000",
                "073908.780000",
                "073909.940000",
                "073911.100000",
                "073912.260000",
                "073913.420000",
                "073914.580000",
                "073915.740000",
                "073916.900000",
                "073918.060000",
                "073919.220000",
                "073920.380000",
                "073921.540000",
                "073922.700000",
                "073923.860000",
                "073925.020000",
                "073926.180000",
                "073927.340000",
                "073928.500000",
                "073929.660000",
                "073930.820000",
                "073931.980000",
                "073933.140000",
                "073934.300000",
                "073935.460000",
                "073936.620000",
                "073937.780000",
                "073938.940000",
                "073940.100000",
                "073941.260000",
                "073942.420000",
                "073943.580000",
                "073944.740000",
                "073945.900000",
                "073947.060000",
                "073948.220000",
                "073949.380000",
                "073950.540000",
                "073951.700000",
                "073952.860000",
                "073954.020000",
                "073955.180000",
                "073956.340000",
                "073957.500000",
                "073958.660000",
                "073959.820000",
                "074000.980000",
                "074002.140000",
                "074003.300000",
                "074004.460000",
                "074005.620000",
                "074006.780000",
                "074007.940000",
                "074009.100000",
                "074010.260000",
                "074011.420000",
                "074012.580000",
                "074013.740000",
                "074014.900000",
                "074016.060000",
                "074017.220000",
                "074018.380000",
                "074019.540000",
                "074020.700000",
                "074021.860000",
                "074023.020000",
                "074024.180000",
                "074025.340000",
                "074026.500000",
                "074027.660000",
                "074028.820000",
                "074029.980000",
                "074031.140000",
                "074032.300000",
                "074033.460000",
                "074034.620000",
                "074035.780000",
                "074036.940000",
                "074038.100000",
                "074039.260000",
                "074040.420000",
                "074041.580000",
                "074042.740000",
                "074043.900000",
                "074045.060000",
                "074046.220000",
                "074047.380000",
                "074048.540000",
                "074049.700000",
                "074050.860000",
                "074052.020000",
                "074053.180000",
                "074054.340000",
                "074055.500000",
                "074056.660000",
                "074057.820000",
                "074058.980000",
                "074100.140000",
                "074101.300000",
                "074102.460000",
                "074103.620000",
                "074104.780000",
                "074105.940000",
                "074107.100000",
                "074108.260000",
                "074109.420000",
                "074110.580000",
                "074111.740000",
                "074112.900000",
                "074114.060000",
                "074115.220000",
                "074116.380000",
                "074117.540000",
                "074118.700000",
                "074119.860000",
                "074121.020000",
                "074122.180000",
                "074123.340000",
                "074124.500000",
                "074125.660000",
                "074126.820000",
                "074127.980000",
                "074129.140000",
                "074130.300000",
                "074131.460000",
                "074132.620000",
                "074133.780000",
                "074134.940000",
                "074136.100000",
                "074137.260000",
                "074138.420000",
                "074139.580000",
                "074140.740000",
                "074141.900000",
                "074143.060000",
                "074144.220000",
                "074145.380000",
                "074146.540000",
                "074147.700000",
                "074148.860000",
                "074150.020000",
                "074151.180000",
                "074152.340000",
                "074153.500000",
                "074154.660000",
                "074155.820000",
                "074156.980000",
                "074158.140000",
                "074159.300000",
                "074200.460000",
                "074201.620000",
                "074202.780000",
                "074203.940000",
                "074205.100000",
                "074206.260000",
                "074207.420000",
                "074208.580000",
                "074209.740000",
                "074210.900000",
                "074212.060000",
                "074213.220000",
                "074214.380000",
