{"AcquisitionMatrixPE": 96, "AcquisitionNumber": 1, "AcquisitionTime": "17:24:31.147500", "BaseResolution": 96, "BodyPartExamined": "BRAIN", "ConsistencyInfo": "N4_VD11D_LATEST_20110129", "ConversionSoftware": "dcm2niix", "ConversionSoftwareVersion": "v1.0.20210317", "DeviceSerialNumber": "45239", "DwellTime": 9.2e-06, "EchoNumber": 2, "EchoTime": 0.00738, "EchoTime1": 0.00492, "EchoTime2": 0.00738, "FlipAngle": 50, "ImageOrientationPatientDICOM": [0.99938, 0.0276035, 0.021869, -0.0118716, 0.848704, -0.528735], "ImageType": ["ORIGINAL", "PRIMARY", "P", "ND", "PHASE"], "ImagingFrequency": 123.193, "InPlanePhaseEncodingDirectionDICOM": "COL", "InstitutionAddress": "E 24th St. 100,Austin,Southmiddle,US,78712", "InstitutionName": "Univ of Texas at Austin", "InstitutionalDepartmentName": "IRC", "MRAcquisitionType": "2D", "MagneticFieldStrength": 3, "Manufacturer": "Siemens", "ManufacturersModelName": "Skyra", "Modality": "MR", "MultibandAccelerationFactor": 2, "PartialFourier": 1, "PatientPosition": "HFS", "PercentPhaseFOV": 100, "PercentSampling": 100, "PhaseEncodingDirection": "j-", "PhaseEncodingSteps": 96, "PhaseResolution": 1, "PixelBandwidth": 565, "ProcedureStepDescription": "Poldrack2^self-scanning", "ProtocolName": "gre_field_mapping", "PulseSequenceDetails": "%SiemensSeq%\\gre_field_mapping", "ReceiveCoilActiveElements": "HEA;HEP", "ReceiveCoilName": "Head_32", "ReconMatrixPE": 96, "RepetitionTime": 0.731, "SAR": 0.109235, "ScanningSequence": "GR", "SequenceName": "*fm2d2r", "SequenceVariant": "SP", "SeriesDescription": "gre_field_mapping", "SeriesNumber": 11, "ShimSetting": [-2780, 8024, -15461, 221, -227, 105, 231, -137], "SliceThickness": 2, "SliceTiming": [0.35938, 0, 0.375, 0.01562, 0.39062, 0.03125, 0.40625, 0.03125, 0.40625, 0.04688, 0.42188, 0.0625, 0.4375, 0.0625, 0.4375, 0.07812, 0.45312, 0.09375, 0.46875, 0.09375, 0.46875, 0.10938, 0.48438, 0.125, 0.5, 0.125, 0.5, 0.14062, 0.51562, 0.15625, 0.53125, 0.15625, 0.53125, 0.17188, 0.54688, 0.1875, 0.5625, 0.20312, 0.57812, 0.20312, 0.57812, 0.21875, 0.59375, 0.23438, 0.60938, 0.23438, 0.60938, 0.25, 0.625, 0.26562, 0.64062, 0.26562, 0.64062, 0.28125, 0.65625, 0.29688, 0.67188, 0.29688, 0.67188, 0.3125, 0.6875, 0.32812, 0.70312, 0.34375, 0.71875, 0.34375, 0.71875, 0.35938], "SoftwareVersions": "syngo MR D11", "SpacingBetweenSlices": 2.4, "StationName": "AWP45239", "TxRefAmp": 334.259, "dcmmeta_affine": [[-2.3943471908569336, -0.02844243310391903, 0.07957243919372559, 114.48194122314453], [-0.0661332756280899, 2.0333526134490967, -1.2675552368164062, -70.28614807128906], [0.052394378930330276, 1.2667617797851562, 2.0364151000976562, -109.59618377685547], [0.0, 0.0, 0.0, 1.0]], "dcmmeta_reorient_transform": [[0.0, -1.0, 0.0, 95.0], [1.0, 0.0, 0.0, 0.0], [0.0, 0.0, -1.0, 67.0], [0.0, 0.0, 0.0, 1.0]], "dcmmeta_shape": [96, 96, 68], "dcmmeta_slice_dim": 2, "dcmmeta_version": 0.6, "global": {"const": {"AcquisitionMatrix": [96, 0, 0, 96], "AcquisitionNumber": 1, "AngioFlag": "N", "BitsAllocated": 16, "BitsStored": 12, "BodyPartExamined": "BRAIN", "Columns": 96, "EchoNumbers": 2, "EchoTime": 7.38, "EchoTrainLength": 0, "FlipAngle": 50.0, "HighBit": 11, "ImageOrientationPatient": [0.99937970659092, 0.02760345419012, 0.02186895907478, -0.0118716245764, 0.84870368731589, -0.5287353928633], "ImageType": ["ORIGINAL", "PRIMARY", "P", "ND"], "ImagedNucleus": "1H", "ImagingFrequency": 123.193454, "InPlanePhaseEncodingDirection": "COL", "MRAcquisitionType": "2D", "MagneticFieldStrength": 3.0, "Manufacturer": "SIEMENS", "ManufacturerModelName": "Skyra", "Modality": "MR", "NumberOfAverages": 1.0, "NumberOfPhaseEncodingSteps": 96, "PercentPhaseFieldOfView": 100.0, "PercentSampling": 100.0, "PerformedProcedureStepStartTime": "170119.171000", "PhotometricInterpretation": "MONOCHROME2", "PixelBandwidth": 565.0, "PixelRepresentation": 0, "PixelSpacing": [2.3958332538605, 2.3958332538605], "ProtocolName": "gre_field_mapping", "RepetitionTime": 731.0, "RescaleIntercept": -4096.0, "RescaleSlope": 2.0, "RescaleType": "US", "Rows": 96, "SAR": 0.10923525330689, "SamplesPerPixel": 1, "ScanningSequence": "GR", "SequenceName": "*fm2d2r", "SequenceVariant": "SP", "SeriesDescription": "gre_field_mapping", "SeriesNumber": 11, "SeriesTime": "173054.453000", "SliceThickness": 2.0, "SoftwareVersions": "syngo MR D11", "SpacingBetweenSlices": 2.4, "SpecificCharacterSet": "ISO_IR 100", "StudyID": "1", "StudyTime": "170119.125000", "TransmitCoilName": "Body", "VariableFlipAngleFlag": "N", "WindowCenterWidthExplanation": "Algo1", "dBdt": 0.0}, "slices": {"AcquisitionTime": ["172431.147500", "172430.782500", "172431.160000", "172430.795000", "172431.170000", "172430.805000", "172431.180000", "172430.815000", "172431.192500", "172430.825000", "172431.202500", "172430.837500", "172431.212500", "172430.847500", "172431.225000", "172430.857500", "172431.235000", "172430.870000", "172431.245000", "172430.880000", "172431.255000", "172430.890000", "172431.267500", "172430.902500", "172431.277500", "172430.912500", "172431.287500", "172430.922500", "172431.300000", "172430.932500", "172431.310000", "172430.945000", "172431.320000", "172430.955000", "172431.332500", "172430.965000", "172431.342500", "172430.977500", "172431.352500", "172430.987500", "172431.362500", "172430.997500", "172431.375000", "172431.010000", "172431.385000", "172431.020000", "172431.395000", "172431.030000", "172431.407500", "172431.040000", "172431.417500", "172431.052500", "172431.427500", "172431.062500", "172431.440000", "172431.072500", "172431.450000", "172431.085000", "172431.460000", "172431.095000", "172431.470000", "172431.105000", "172431.482500", "172431.117500", "172431.492500", "172431.127500", "172431.502500", "172431.137500"], "ContentTime": ["173054.531000", "173054.468000", "173054.531000", "173054.468000", "173054.546000", "173054.468000", "173054.546000", "173054.468000", "173054.546000", "173054.468000", "173054.546000", "173054.468000", "173054.546000", "173054.468000", "173054.546000", "173054.468000", "173054.578000", "173054.484000", "173054.578000", "173054.484000", "173054.578000", "173054.484000", "173054.578000", "173054.484000", "173054.578000", "173054.484000", "173054.578000", "173054.484000", "173054.578000", "173054.484000", "173054.578000", "173054.484000", "173054.578000", "173054.484000", "173054.593000", "173054.500000", "173054.593000", "173054.500000", "173054.593000", "173054.500000", "173054.593000", "173054.500000", "173054.593000", "173054.500000", "173054.593000", "173054.500000", "173054.593000", "173054.500000", "173054.593000", "173054.500000", "173054.609000", "173054.515000", "173054.609000", "173054.515000", "173054.609000", "173054.515000", "173054.609000", "173054.515000", "173054.609000", "173054.515000", "173054.609000", "173054.515000", "173054.625000", "173054.531000", "173054.625000", "173054.531000", "173054.640000", "173054.531000"], "CsaImage.ICE_Dims": ["X_2_1_1_1_1_1_35_1_1_1_1_684", "X_2_1_1_1_1_1_1_1_1_2_1_684", "X_2_1_1_1_1_1_36_1_1_3_1_684", "X_2_1_1_1_1_1_2_1_1_4_1_684", "X_2_1_1_1_1_1_37_1_1_5_1_684", "X_2_1_1_1_1_1_3_1_1_6_1_684", "X_2_1_1_1_1_1_38_1_1_7_1_684", "X_2_1_1_1_1_1_4_1_1_8_1_684", "X_2_1_1_1_1_1_39_1_1_9_1_684", "X_2_1_1_1_1_1_5_1_1_10_1_684", "X_2_1_1_1_1_1_40_1_1_11_1_684", "X_2_1_1_1_1_1_6_1_1_12_1_684", "X_2_1_1_1_1_1_41_1_1_13_1_684", "X_2_1_1_1_1_1_7_1_1_14_1_684", "X_2_1_1_1_1_1_42_1_1_15_1_684", "X_2_1_1_1_1_1_8_1_1_16_1_684", "X_2_1_1_1_1_1_43_1_1_17_1_684", "X_2_1_1_1_1_1_9_1_1_18_1_684", "X_2_1_1_1_1_1_44_1_1_19_1_684", "X_2_1_1_1_1_1_10_1_1_20_1_684", "X_2_1_1_1_1_1_45_1_1_21_1_684", "X_2_1_1_1_1_1_11_1_1_22_1_684", "X_2_1_1_1_1_1_46_1_1_23_1_684", "X_2_1_1_1_1_1_12_1_1_24_1_684", "X_2_1_1_1_1_1_47_1_1_25_1_684", "X_2_1_1_1_1_1_13_1_1_26_1_684", "X_2_1_1_1_1_1_48_1_1_27_1_684", "X_2_1_1_1_1_1_14_1_1_28_1_684", "X_2_1_1_1_1_1_49_1_1_29_1_684", "X_2_1_1_1_1_1_15_1_1_30_1_684", "X_2_1_1_1_1_1_50_1_1_31_1_684", "X_2_1_1_1_1_1_16_1_1_32_1_684", "X_2_1_1_1_1_1_51_1_1_33_1_684", "X_2_1_1_1_1_1_17_1_1_34_1_684", "X_2_1_1_1_1_1_52_1_1_35_1_684", "X_2_1_1_1_1_1_18_1_1_36_1_684", "X_2_1_1_1_1_1_53_1_1_37_1_684", "X_2_1_1_1_1_1_19_1_1_38_1_684", "X_2_1_1_1_1_1_54_1_1_39_1_684", "X_2_1_1_1_1_1_20_1_1_40_1_684", "X_2_1_1_1_1_1_55_1_1_41_1_684", "X_2_1_1_1_1_1_21_1_1_42_1_684", "X_2_1_1_1_1_1_56_1_1_43_1_684", "X_2_1_1_1_1_1_22_1_1_44_1_684", "X_2_1_1_1_1_1_57_1_1_45_1_684", "X_2_1_1_1_1_1_23_1_1_46_1_684", "X_2_1_1_1_1_1_58_1_1_47_1_684", "X_2_1_1_1_1_1_24_1_1_48_1_684", "X_2_1_1_1_1_1_59_1_1_49_1_684", "X_2_1_1_1_1_1_25_1_1_50_1_684", "X_2_1_1_1_1_1_60_1_1_51_1_684", "X_2_1_1_1_1_1_26_1_1_52_1_684", "X_2_1_1_1_1_1_61_1_1_53_1_684", "X_2_1_1_1_1_1_27_1_1_54_1_684", "X_2_1_1_1_1_1_62_1_1_55_1_684", "X_2_1_1_1_1_1_28_1_1_56_1_684", "X_2_1_1_1_1_1_63_1_1_57_1_684", "X_2_1_1_1_1_1_29_1_1_58_1_684", "X_2_1_1_1_1_1_64_1_1_59_1_684", "X_2_1_1_1_1_1_30_1_1_60_1_684", "X_2_1_1_1_1_1_65_1_1_61_1_684", "X_2_1_1_1_1_1_31_1_1_62_1_684", "X_2_1_1_1_1_1_66_1_1_63_1_684", "X_2_1_1_1_1_1_32_1_1_64_1_684", "X_2_1_1_1_1_1_67_1_1_65_1_684", "X_2_1_1_1_1_1_33_1_1_66_1_684", "X_2_1_1_1_1_1_68_1_1_67_1_684", "X_2_1_1_1_1_1_34_1_1_68_1_684"], "CsaImage.ProtocolSliceNumber": [0, 1, 2, 3, 4, 5, 6, 7, 8, 9, 10, 11, 12, 13, 14, 15, 16, 17, 18, 19, 20, 21, 22, 23, 24, 25, 26, 27, 28, 29, 30, 31, 32, 33, 34, 35, 36, 37, 38, 39, 40, 41, 42, 43, 44, 45, 46, 47, 48, 49, 50, 51, 52, 53, 54, 55, 56, 57, 58, 59, 60, 61, 62, 63, 64, 65, 66, 67], "CsaImage.SlicePosition_PCS": [[-111.77991307, -122.88230493, 10.74640217], [-111.85948551, -121.6147516, 12.78281727], [-111.93905795, -120.34719636, 14.81922856], [-112.01863039, -119.07964113, 16.85563984], [-112.09820283, -117.81208589, 18.89205113], [-112.17777527, -116.54453161, 20.92846242], [-112.25734771, -115.27697732, 22.9648737], [-112.33692015, -114.00942209, 25.00128499], [-112.41649259, -112.7418678, 27.03769818], [-112.49606503, -111.47431257, 29.07411137], [-112.5756374, -110.20675828, 31.11052266], [-112.65520984, -108.93920305, 33.14693394], [-112.73478228, -107.67164876, 35.18334523], [-112.81435472, -106.404094, 37.21975842], [-112.8939271, -105.13653924, 39.25616971], [-112.97349954, -103.86898448, 41.29258099], [-113.05307198, -102.60142984, 43.32899323], [-113.13264442, -101.33387508, 45.36540547], [-113.21221683, -100.06632032, 47.40181675], [-113.29178927, -98.79876556, 49.43822899], [-113.37136169, -97.53121092, 51.47464076], [-113.45093412, -96.26365592, 53.51105252], [-113.53050655, -94.99610116, 55.54746452], [-113.61007898, -93.7285464, 57.58387646], [-113.6896514, -92.46099164, 59.62028828], [-113.76922383, -91.19343736, 61.65670004], [-113.84879625, -89.92588212, 63.69311181], [-113.92836869, -88.65832784, 65.72952405], [-114.00794113, -87.3907726, 67.76593533], [-114.08751357, -86.12321832, 69.80234757], [-114.16708595, -84.85566308, 71.83875981], [-114.24665839, -83.58810785, 73.87517109], [-114.32623083, -82.32055452, 75.91158238], [-114.40580327, -81.05299928, 77.94799557], [-114.48537571, -79.78544404, 79.98440686], [-114.56494809, -78.51788881, 82.02081814], [-114.64452053, -77.25033548, 84.05723134], [-114.72409296, -75.98278024, 86.09364262], [-114.8036654, -74.715225, 88.13005391], [-114.88323784, -73.44767167, 90.16646519], [-114.96281028, -72.18011644, 92.20287648], [-115.04238272, -70.9125612, 94.23929158], [-115.12195516, -69.64500596, 96.27570286], [-115.20152748, -68.37745263, 98.31211415], [-115.28109992, -67.1098974, 100.34852543], [-115.36067236, -65.84234216, 102.38493672], [-115.4402448, -64.57478692, 104.421348], [-115.51981724, -63.30723169, 106.45775929], [-115.59938968, -62.03967645, 108.49417439], [-115.67896212, -60.77212503, 110.53058568], [-115.75853456, -59.50456979, 112.56699696], [-115.83810699, -58.23701456, 114.60340825], [-115.91767943, -56.96945932, 116.63981953], [-115.99725187, -55.70190408, 118.67623082], [-116.07682431, -54.43434884, 120.7126421], [-116.15639675, -53.16679361, 122.7490572], [-116.23596919, -51.89923837, 124.78546467], [-116.31554163, -50.63168695, 126.82187977], [-116.39511407, -49.36413171, 128.85829487], [-116.47468651, -48.09657648, 130.89470234], [-116.55425871, -46.82902124, 132.93111744], [-116.63383115, -45.561466, 134.96752492], [-116.71340359, -44.29391076, 137.00394002], [-116.79297603, -43.02635553, 139.04034749], [-116.87254847, -41.75880411, 141.07676259], [-116.9521209, -40.49124887, 143.11317769], [-117.03169334, -39.22369363, 145.14958516], [-117.11126578, -37.9561384, 147.18600026]], "CsaImage.TimeAfterStart": [1.1, 0.735, 1.11, 0.745, 1.12, 0.755, 1.1325, 0.7675, 1.1425, 0.7775, 1.1525, 0.7875, 1.165, 0.7975, 1.175, 0.81, 1.185, 0.82, 1.1975, 0.83, 1.2075, 0.8425, 1.2175, 0.8525, 1.2275, 0.8625, 1.24, 0.875, 1.25, 0.885, 1.26, 0.895, 1.2725, 0.905, 1.2825, 0.9175, 1.2925, 0.9275, 1.305, 0.9375, 1.315, 0.95, 1.325, 0.96, 1.335, 0.97, 1.3475, 0.9825, 1.3575, 0.9925, 1.3675, 1.0025, 1.38, 1.0125, 1.39, 1.025, 1.4, 1.035, 1.4125, 1.045, 1.4225, 1.0575, 1.4325, 1.0675, 1.4425, 1.0775, 1.455, 1.09], "ImagePositionPatient": [[-111.77991307231, -122.88230492986, 10.746402173331], [-111.85948551151, -121.61475160039, 12.782817273428], [-111.9390579507, -120.34719636357, 14.819228558829], [-112.01863038989, -119.07964112676, 16.855639844229], [-112.09820282909, -117.81208588994, 18.89205112963], [-112.17777526828, -116.5445316068, 20.92846241503], [-112.25734770747, -115.27697732366, 22.96487370043], [-112.33692014667, -114.00942208684, 25.001284985831], [-112.41649258586, -112.7418678037, 27.03769817858], [-112.49606502506, -111.47431256688, 29.074111371329], [-112.57563740465, -110.20675828374, 31.110522656729], [-112.65520984384, -108.93920304692, 33.14693394213], [-112.73478228303, -107.67164876378, 35.18334522753], [-112.81435472223, -106.4040940038, 37.219758420279], [-112.89392710182, -105.13653924382, 39.256169705679], [-112.97349954101, -103.86898448384, 41.29258099108], [-113.0530719802, -102.60142984307, 43.328993230155], [-113.1326444194, -101.33387508309, 45.365405469229], [-113.21221682879, -100.06632032311, 47.40181675463], [-113.29178926798, -98.798765563134, 49.438228993704], [-113.37136169227, -97.531210922364, 51.474640755942], [-113.45093411657, -96.263655923966, 53.511052518179], [-113.53050654831, -94.996101163987, 55.547464518836], [-113.61007897633, -93.728546404008, 57.583876459887], [-113.68965140435, -92.460991644029, 59.620288281729], [-113.76922382864, -91.193437360887, 61.656700043967], [-113.84879625293, -89.92588212407, 63.693111806204], [-113.92836869212, -88.658327840928, 65.729524045279], [-114.00794113132, -87.390772604112, 67.765935330679], [-114.08751357051, -86.12321832097, 69.802347569754], [-114.1670859501, -84.855663084153, 71.838759808829], [-114.24665838929, -83.588107847337, 73.875171094229], [-114.32623082849, -82.320554517869, 75.91158237963], [-114.40580326768, -81.052999281053, 77.947995572379], [-114.48537570688, -79.785444044236, 79.984406857779], [-114.56494808647, -78.51788880742, 82.020818143179], [-114.64452052566, -77.250335477952, 84.057231335928], [-114.72409296485, -75.982780241136, 86.093642621329], [-114.80366540405, -74.715225004319, 88.130053906729], [-114.88323784324, -73.447671674851, 90.16646519213], [-114.96281028243, -72.180116438035, 92.20287647753], [-115.04238272163, -70.912561201219, 94.239291577628], [-115.12195516082, -69.645005964402, 96.275702863028], [-115.20152748081, -68.377452634934, 98.312114148428], [-115.28109992, -67.109897398118, 100.34852543383], [-115.36067235919, -65.842342161302, 102.38493671923], [-115.44024479839, -64.574786924485, 104.42134800463], [-115.51981723758, -63.307231687669, 106.45775929003], [-115.59938967677, -62.039676450852, 108.49417439013], [-115.67896211597, -60.772125028733, 110.53058567553], [-115.75853455516, -59.504569791917, 112.56699696093], [-115.83810699436, -58.2370145551, 114.60340824633], [-115.91767943355, -56.969459318284, 116.63981953173], [-115.99725187274, -55.701904081468, 118.67623081713], [-116.07682431194, -54.434348844651, 120.71264210253], [-116.15639675113, -53.166793607835, 122.74905720263], [-116.23596919032, -51.899238371018, 124.78546467333], [-116.31554162952, -50.631686948899, 126.82187977343], [-116.39511406871, -49.364131712083, 128.85829487353], [-116.47468650791, -48.096576475266, 130.89470234423], [-116.55425870868, -46.82902123845, 132.93111744433], [-116.63383114787, -45.561466001634, 134.96752491503], [-116.71340358707, -44.293910764817, 137.00394001513], [-116.79297602626, -43.026355528001, 139.04034748583], [-116.87254846546, -41.758804105882, 141.07676258593], [-116.95212090465, -40.491248869065, 143.11317768603], [-117.03169334384, -39.223693632249, 145.14958515673], [-117.11126578304, -37.956138395432, 147.18600025683]], "InstanceCreationTime": ["173054.531000", "173054.468000", "173054.531000", "173054.468000", "173054.546000", "173054.468000", "173054.546000", "173054.468000", "173054.546000", "173054.468000", "173054.546000", "173054.468000", "173054.546000", "173054.468000", "173054.546000", "173054.468000", "173054.578000", "173054.484000", "173054.578000", "173054.484000", "173054.578000", "173054.484000", "173054.578000", "173054.484000", "173054.578000", "173054.484000", "173054.578000", "173054.484000", "173054.578000", "173054.484000", "173054.578000", "173054.484000", "173054.578000", "173054.484000", "173054.593000", "173054.500000", "173054.593000", "173054.500000", "173054.593000", "173054.500000", "173054.593000", "173054.500000", "173054.593000", "173054.500000", "173054.593000", "173054.500000", "173054.593000", "173054.500000", "173054.593000", "173054.500000", "173054.609000", "173054.515000", "173054.609000", "173054.515000", "173054.609000", "173054.515000", "173054.609000", "173054.515000", "173054.609000", "173054.515000", "173054.609000", "173054.515000", "173054.625000", "173054.531000", "173054.625000", "173054.531000", "173054.640000", "173054.531000"], "InstanceNumber": [1, 2, 3, 4, 5, 6, 7, 8, 9, 10, 11, 12, 13, 14, 15, 16, 17, 18, 19, 20, 21, 22, 23, 24, 25, 26, 27, 28, 29, 30, 31, 32, 33, 34, 35, 36, 37, 38, 39, 40, 41, 42, 43, 44, 45, 46, 47, 48, 49, 50, 51, 52, 53, 54, 55, 56, 57, 58, 59, 60, 61, 62, 63, 64, 65, 66, 67, 68], "LargestImagePixelValue": [4094, 4094, 4094, 4094, 4094, 4094, 4092, 4094, 4093, 4094, 4094, 4094, 4094, 4094, 4094, 4094, 4092, 4094, 4092, 4094, 4092, 4093, 4092, 4092, 4093, 4091, 4093, 4088, 4093, 4094, 4094, 4093, 4088, 4093, 4093, 4092, 4094, 4092, 4094, 4094, 4089, 4089, 4094, 4092, 4089, 4090, 4092, 4094, 4094, 4092, 4093, 4093, 4093, 4094, 4094, 4094, 4094, 4092, 4094, 4094, 4094, 4092, 4093, 4094, 4092, 4094, 4094, 4092], "SliceLocation": [-52.075559699194, -49.675557683357, -47.275557896948, -44.875558110538, -42.475558324129, -40.0755590414, -37.675559758672, -35.275559972262, -32.875559071139, -30.475557666335, -28.075558385583, -25.675558599173, -23.275559316445, -20.875558163481, -18.475558630888, -16.075559096319, -13.675558815513, -11.275558471747, -8.8755589381659, -6.4755585943995, -4.0755587186861, -1.6755586540922, 0.72444148712775, 3.1244415776494, 5.5244415670213, 7.9244412538544, 10.324441444369, 12.724441536294, 15.124441322704, 17.52444141463, 19.92444200826, 22.32444179467, 24.724440573717, 27.124441978521, 29.524441764931, 31.924441549364, 34.324441946806, 36.724441733216, 39.124441519625, 41.524440298673, 43.924440085082, 46.324443108281, 48.724442894691, 51.124441669786, 53.524441456195, 55.924441242605, 58.324441029014, 60.724440815424, 63.124443838622, 65.524441610308, 67.924441396717, 70.324441183127, 72.724440969536, 75.124440755946, 77.524440542355, 79.924443565554, 82.324440115174, 84.724441123649, 87.124444146848, 89.524440696468, 91.924443711762, 94.324440261382, 96.724443284581, 99.124439834201, 101.52444084268, 103.92444386587, 106.32444041549, 108.72444343869], "SmallestImagePixelValue": [0, 0, 0, 0, 0, 2, 0, 0, 0, 0, 0, 6, 0, 0, 0, 0, 0, 1, 2, 4, 1, 2, 4, 1, 2, 1, 2, 3, 0, 5, 5, 0, 1, 1, 1, 1, 7, 0, 2, 1, 0, 6, 4, 0, 1, 8, 4, 2, 0, 0, 1, 1, 0, 0, 1, 3, 1, 2, 2, 3, 4, 0, 0, 0, 0, 1, 0, 0], "WindowCenter": [-194.0, -268.0, -222.0, -250.0, -242.0, -266.0, -336.0, -606.0, -586.0, -410.0, -602.0, -566.0, -616.0, -558.0, -574.0, -560.0, -522.0, -478.0, -502.0, -466.0, -478.0, -450.0, -436.0, -402.0, -388.0, -366.0, -348.0, -322.0, -306.0, -288.0, -266.0, -264.0, -230.0, -230.0, -238.0, -230.0, -218.0, -230.0, -192.0, -178.0, -156.0, -144.0, -150.0, -138.0, -174.0, -208.0, -236.0, -234.0, -244.0, -246.0, -230.0, -216.0, -206.0, -206.0, -258.0, -264.0, -280.0, -276.0, -280.0, -284.0, -306.0, -334.0, -384.0, -392.0, -400.0, -470.0, -456.0, -470.0], "WindowWidth": [5722.0, 5732.0, 6016.0, 6252.0, 6258.0, 6234.0, 5926.0, 4998.0, 5024.0, 5610.0, 5004.0, 4900.0, 4896.0, 4872.0, 4784.0, 4780.0, 4756.0, 4716.0, 4658.0, 4582.0, 4506.0, 4460.0, 4416.0, 4378.0, 4330.0, 4254.0, 4274.0, 4268.0, 4166.0, 4114.0, 4106.0, 4066.0, 4092.0, 4044.0, 4050.0, 4036.0, 4056.0, 4086.0, 4090.0, 4110.0, 4162.0, 4168.0, 4208.0, 4216.0, 4252.0, 4228.0, 4250.0, 4258.0, 4264.0, 4276.0, 4280.0, 4278.0, 4318.0, 4292.0, 4302.0, 4296.0, 4360.0, 4370.0, 4436.0, 4408.0, 4488.0, 4518.0, 4630.0, 4692.0, 4714.0, 4776.0, 4856.0, 4900.0]}}}