{"AcquisitionMatrixPE": 96, "AcquisitionNumber": 1, "AcquisitionTime": "07:40:19.142500", "BaseResolution": 96, "BodyPartExamined": "BRAIN", "ConsistencyInfo": "N4_VD11D_LATEST_20110129", "ConversionSoftware": "dcm2niix", "ConversionSoftwareVersion": "v1.0.20210317", "DeviceSerialNumber": "45239", "DwellTime": 9.2e-06, "EchoNumber": 2, "EchoTime": 0.00738, "EchoTime1": 0.00492, "EchoTime2": 0.00738, "FlipAngle": 50, "ImageOrientationPatientDICOM": [0.99846, 0.0130402, 0.0539245, 0.0184077, 0.839054, -0.543737], "ImageType": ["ORIGINAL", "PRIMARY", "P", "ND", "PHASE"], "ImagingFrequency": 123.193, "InPlanePhaseEncodingDirectionDICOM": "COL", "InstitutionAddress": "E 24th St. 100,Austin,Southmiddle,US,78712", "InstitutionName": "Univ of Texas at Austin", "InstitutionalDepartmentName": "IRC", "MRAcquisitionType": "2D", "MagneticFieldStrength": 3, "Manufacturer": "Siemens", "ManufacturersModelName": "Skyra", "Modality": "MR", "PartialFourier": 1, "PatientPosition": "HFS", "PercentPhaseFOV": 100, "PercentSampling": 100, "PhaseEncodingDirection": "j-", "PhaseEncodingSteps": 96, "PhaseResolution": 1, "PixelBandwidth": 565, "ProcedureStepDescription": "Poldrack2^self-scanning", "ProtocolName": "gre_field_mapping", "PulseSequenceDetails": "%SiemensSeq%\\gre_field_mapping", "ReceiveCoilActiveElements": "HEA;HEP", "ReceiveCoilName": "Head_32", "ReconMatrixPE": 96, "RepetitionTime": 0.731, "SAR": 0.119012, "ScanningSequence": "GR", "SequenceName": "*fm2d2r", "SequenceVariant": "SP", "SeriesDescription": "gre_field_mapping", "SeriesNumber": 11, "ShimSetting": [-2783, 8040, -15456, 159, -235, 74, 182, -94], "SliceThickness": 2, "SliceTiming": [0.35938, 0, 0.375, 0.00781, 0.38281, 0.01562, 0.39062, 0.03125, 0.40625, 0.03906, 0.41406, 0.04688, 0.42969, 0.0625, 0.4375, 0.07031, 0.44531, 0.07812, 0.46094, 0.09375, 0.46875, 0.10156, 0.47656, 0.11719, 0.49219, 0.125, 0.5, 0.13281, 0.50781, 0.14844, 0.52344, 0.15625, 0.53125, 0.16406, 0.54688, 0.17969, 0.55469, 0.1875, 0.5625, 0.19531, 0.57812, 0.21094, 0.58594, 0.21875, 0.59375, 0.23438, 0.60938, 0.24219, 0.61719, 0.25, 0.625, 0.26562, 0.64062, 0.27344, 0.64844, 0.28906, 0.66406, 0.29688, 0.67188, 0.30469, 0.6875, 0.32031, 0.69531, 0.32812, 0.70312, 0.33594, 0.71875, 0.35156], "SoftwareVersions": "syngo MR D11", "SpacingBetweenSlices": 2.4, "StationName": "AWP45239", "TxRefAmp": 342.459, "dcmmeta_affine": [[-2.3921432495117188, 0.0441017746925354, 0.12560653686523438, 110.75932312011719], [-0.03124210610985756, 2.0102322101593018, -1.3053398132324219, -62.78261947631836], [0.12919406592845917, 1.3027042150497437, 2.0100479125976562, -88.11054992675781], [0.0, 0.0, 0.0, 1.0]], "dcmmeta_reorient_transform": [[0.0, -1.0, 0.0, 95.0], [1.0, 0.0, 0.0, 0.0], [0.0, 0.0, -1.0, 67.0], [0.0, 0.0, 0.0, 1.0]], "dcmmeta_shape": [96, 96, 68], "dcmmeta_slice_dim": 2, "dcmmeta_version": 0.6, "global": {"const": {"AcquisitionMatrix": [96, 0, 0, 96], "AcquisitionNumber": 1, "AngioFlag": "N", "BitsAllocated": 16, "BitsStored": 12, "BodyPartExamined": "BRAIN", "Columns": 96, "EchoNumbers": 2, "EchoTime": 7.38, "EchoTrainLength": 0, "FlipAngle": 50.0, "HighBit": 11, "ImageOrientationPatient": [0.99845986600368, 0.01304018350841, 0.05392448047028, 0.01840769710268, 0.83905349414137, -0.5437374280446], "ImageType": ["ORIGINAL", "PRIMARY", "P", "ND"], "ImagedNucleus": "1H", "ImagingFrequency": 123.19337, "InPlanePhaseEncodingDirection": "COL", "MRAcquisitionType": "2D", "MagneticFieldStrength": 3.0, "Manufacturer": "SIEMENS", "ManufacturerModelName": "Skyra", "Modality": "MR", "NumberOfAverages": 1.0, "NumberOfPhaseEncodingSteps": 96, "PercentPhaseFieldOfView": 100.0, "PercentSampling": 100.0, "PerformedProcedureStepStartTime": "070939.265000", "PhotometricInterpretation": "MONOCHROME2", "PixelBandwidth": 565.0, "PixelRepresentation": 0, "PixelSpacing": [2.3958332538605, 2.3958332538605], "ProtocolName": "gre_field_mapping", "RepetitionTime": 731.0, "RescaleIntercept": -4096.0, "RescaleSlope": 2.0, "RescaleType": "US", "Rows": 96, "SAR": 0.11901231177694, "SamplesPerPixel": 1, "ScanningSequence": "GR", "SequenceName": "*fm2d2r", "SequenceVariant": "SP", "SeriesDescription": "gre_field_mapping", "SeriesNumber": 11, "SeriesTime": "074632.062000", "SliceThickness": 2.0, "SoftwareVersions": "syngo MR D11", "SpacingBetweenSlices": 2.4, "SpecificCharacterSet": "ISO_IR 100", "StudyID": "1", "StudyTime": "070938.906000", "TransmitCoilName": "Body", "VariableFlipAngleFlag": "N", "WindowCenterWidthExplanation": "Algo1", "dBdt": 0.0}, "slices": {"AcquisitionTime": ["074019.142500", "074018.777500", "074019.152500", "074018.787500", "074019.162500", "074018.797500", "074019.175000", "074018.810000", "074019.185000", "074018.820000", "074019.195000", "074018.830000", "074019.207500", "074018.840000", "074019.217500", "074018.852500", "074019.227500", "074018.862500", "074019.240000", "074018.872500", "074019.250000", "074018.885000", "074019.260000", "074018.895000", "074019.270000", "074018.905000", "074019.282500", "074018.917500", "074019.292500", "074018.927500", "074019.302500", "074018.937500", "074019.315000", "074018.947500", "074019.325000", "074018.960000", "074019.335000", "074018.970000", "074019.347500", "074018.980000", "074019.357500", "074018.992500", "074019.367500", "074019.002500", "074019.377500", "074019.012500", "074019.390000", "074019.025000", "074019.400000", "074019.035000", "074019.410000", "074019.045000", "074019.422500", "074019.055000", "074019.432500", "074019.067500", "074019.442500", "074019.077500", "074019.455000", "074019.087500", "074019.465000", "074019.100000", "074019.475000", "074019.110000", "074019.485000", "074019.120000", "074019.497500", "074019.132500"], "ContentTime": ["074632.203000", "074632.109000", "074632.203000", "074632.109000", "074632.203000", "074632.109000", "074632.203000", "074632.109000", "074632.203000", "074632.125000", "074632.203000", "074632.125000", "074632.218000", "074632.125000", "074632.218000", "074632.125000", "074632.234000", "074632.125000", "074632.234000", "074632.125000", "074632.250000", "074632.125000", "074632.250000", "074632.125000", "074632.250000", "074632.140000", "074632.250000", "074632.140000", "074632.250000", "074632.140000", "074632.250000", "074632.140000", "074632.265000", "074632.140000", "074632.265000", "074632.140000", "074632.265000", "074632.140000", "074632.281000", "074632.140000", "074632.281000", "074632.140000", "074632.281000", "074632.156000", "074632.281000", "074632.156000", "074632.281000", "074632.156000", "074632.281000", "074632.156000", "074632.281000", "074632.187000", "074632.296000", "074632.187000", "074632.296000", "074632.187000", "074632.296000", "074632.187000", "074632.296000", "074632.187000", "074632.296000", "074632.187000", "074632.296000", "074632.203000", "074632.296000", "074632.203000", "074632.296000", "074632.203000"], "CsaImage.ICE_Dims": ["X_2_1_1_1_1_1_35_1_1_1_1_1034", "X_2_1_1_1_1_1_1_1_1_2_1_1034", "X_2_1_1_1_1_1_36_1_1_3_1_1034", "X_2_1_1_1_1_1_2_1_1_4_1_1034", "X_2_1_1_1_1_1_37_1_1_5_1_1034", "X_2_1_1_1_1_1_3_1_1_6_1_1034", "X_2_1_1_1_1_1_38_1_1_7_1_1034", "X_2_1_1_1_1_1_4_1_1_8_1_1034", "X_2_1_1_1_1_1_39_1_1_9_1_1034", "X_2_1_1_1_1_1_5_1_1_10_1_1034", "X_2_1_1_1_1_1_40_1_1_11_1_1034", "X_2_1_1_1_1_1_6_1_1_12_1_1034", "X_2_1_1_1_1_1_41_1_1_13_1_1034", "X_2_1_1_1_1_1_7_1_1_14_1_1034", "X_2_1_1_1_1_1_42_1_1_15_1_1034", "X_2_1_1_1_1_1_8_1_1_16_1_1034", "X_2_1_1_1_1_1_43_1_1_17_1_1034", "X_2_1_1_1_1_1_9_1_1_18_1_1034", "X_2_1_1_1_1_1_44_1_1_19_1_1034", "X_2_1_1_1_1_1_10_1_1_20_1_1034", "X_2_1_1_1_1_1_45_1_1_21_1_1034", "X_2_1_1_1_1_1_11_1_1_22_1_1034", "X_2_1_1_1_1_1_46_1_1_23_1_1034", "X_2_1_1_1_1_1_12_1_1_24_1_1034", "X_2_1_1_1_1_1_47_1_1_25_1_1034", "X_2_1_1_1_1_1_13_1_1_26_1_1034", "X_2_1_1_1_1_1_48_1_1_27_1_1034", "X_2_1_1_1_1_1_14_1_1_28_1_1034", "X_2_1_1_1_1_1_49_1_1_29_1_1034", "X_2_1_1_1_1_1_15_1_1_30_1_1034", "X_2_1_1_1_1_1_50_1_1_31_1_1034", "X_2_1_1_1_1_1_16_1_1_32_1_1034", "X_2_1_1_1_1_1_51_1_1_33_1_1034", "X_2_1_1_1_1_1_17_1_1_34_1_1034", "X_2_1_1_1_1_1_52_1_1_35_1_1034", "X_2_1_1_1_1_1_18_1_1_36_1_1034", "X_2_1_1_1_1_1_53_1_1_37_1_1034", "X_2_1_1_1_1_1_19_1_1_38_1_1034", "X_2_1_1_1_1_1_54_1_1_39_1_1034", "X_2_1_1_1_1_1_20_1_1_40_1_1034", "X_2_1_1_1_1_1_55_1_1_41_1_1034", "X_2_1_1_1_1_1_21_1_1_42_1_1034", "X_2_1_1_1_1_1_56_1_1_43_1_1034", "X_2_1_1_1_1_1_22_1_1_44_1_1034", "X_2_1_1_1_1_1_57_1_1_45_1_1034", "X_2_1_1_1_1_1_23_1_1_46_1_1034", "X_2_1_1_1_1_1_58_1_1_47_1_1034", "X_2_1_1_1_1_1_24_1_1_48_1_1034", "X_2_1_1_1_1_1_59_1_1_49_1_1034", "X_2_1_1_1_1_1_25_1_1_50_1_1034", "X_2_1_1_1_1_1_60_1_1_51_1_1034", "X_2_1_1_1_1_1_26_1_1_52_1_1034", "X_2_1_1_1_1_1_61_1_1_53_1_1034", "X_2_1_1_1_1_1_27_1_1_54_1_1034", "X_2_1_1_1_1_1_62_1_1_55_1_1034", "X_2_1_1_1_1_1_28_1_1_56_1_1034", "X_2_1_1_1_1_1_63_1_1_57_1_1034", "X_2_1_1_1_1_1_29_1_1_58_1_1034", "X_2_1_1_1_1_1_64_1_1_59_1_1034", "X_2_1_1_1_1_1_30_1_1_60_1_1034", "X_2_1_1_1_1_1_65_1_1_61_1_1034", "X_2_1_1_1_1_1_31_1_1_62_1_1034", "X_2_1_1_1_1_1_66_1_1_63_1_1034", "X_2_1_1_1_1_1_32_1_1_64_1_1034", "X_2_1_1_1_1_1_67_1_1_65_1_1034", "X_2_1_1_1_1_1_33_1_1_66_1_1034", "X_2_1_1_1_1_1_68_1_1_67_1_1034", "X_2_1_1_1_1_1_34_1_1_68_1_1034"], "CsaImage.ProtocolSliceNumber": [0, 1, 2, 3, 4, 5, 6, 7, 8, 9, 10, 11, 12, 13, 14, 15, 16, 17, 18, 19, 20, 21, 22, 23, 24, 25, 26, 27, 28, 29, 30, 31, 32, 33, 34, 35, 36, 37, 38, 39, 40, 41, 42, 43, 44, 45, 46, 47, 48, 49, 50, 51, 52, 53, 54, 55, 56, 57, 58, 59, 60, 61, 62, 63, 64, 65, 66, 67], "CsaImage.SlicePosition_PCS": [[-114.94900984, -128.18961268, 35.64615602], [-115.07461614, -126.88427096, 37.65620584], [-115.20022232, -125.57892733, 39.66625756], [-115.32582862, -124.27358561, 41.67630834], [-115.45143492, -122.96824389, 43.68635911], [-115.57704122, -121.66290026, 45.69640989], [-115.70264751, -120.35755854, 47.70646066], [-115.82825381, -119.05221682, 49.71651143], [-115.95386017, -117.74687319, 51.72656268], [-116.07946647, -116.44153147, 53.73661346], [-116.20507271, -115.13618975, 55.74666429], [-116.33067901, -113.83084708, 57.75671512], [-116.45628534, -112.52550536, 59.76676602], [-116.58189163, -111.22016268, 61.77681703], [-116.70749792, -109.91482001, 63.7868678], [-116.83310422, -108.60947829, 65.79691858], [-116.95871051, -107.30413562, 67.80696935], [-117.0843168, -105.99879294, 69.81702012], [-117.2099231, -104.69345122, 71.8270709], [-117.33552939, -103.38810902, 73.83712167], [-117.46113569, -102.08276635, 75.8471734], [-117.58674199, -100.77742415, 77.85722322], [-117.71234829, -99.47208183, 79.86727494], [-117.83795459, -98.16673958, 81.87732476], [-117.96356089, -96.86139732, 83.88737649], [-118.08916719, -95.55605489, 85.89742822], [-118.21477348, -94.25071269, 87.90747804], [-118.34037978, -92.94537049, 89.91752977], [-118.46598608, -91.64002829, 91.92758149], [-118.59159238, -90.33468562, 93.93762941], [-118.71719868, -89.0293439, 95.94768113], [-118.84280498, -87.72400122, 97.95773286], [-118.96841116, -86.41865855, 99.96778459], [-119.09401745, -85.11331683, 101.97783632], [-119.21962375, -83.80797415, 103.98788423], [-119.34523005, -82.50263148, 105.99793596], [-119.47083635, -81.19728976, 108.00798768], [-119.59644265, -79.89194804, 110.01803941], [-119.72204895, -78.58660441, 112.02808732], [-119.84765524, -77.28126269, 114.03813905], [-119.97326154, -75.97592097, 116.04819078], [-120.09886784, -74.67057734, 118.0582425], [-120.22447414, -73.36523562, 120.06829423], [-120.35008044, -72.0598939, 122.07834214], [-120.47568674, -70.75455027, 124.08839769], [-120.60129304, -69.44920855, 126.0984456], [-120.72689933, -68.14386683, 128.10849351], [-120.85250563, -66.83852511, 130.11854905], [-120.97811217, -65.53318148, 132.12859697], [-121.10371823, -64.22783786, 134.13864488], [-121.22932477, -62.92249804, 136.14870042], [-121.35493083, -61.61715441, 138.15874833], [-121.48053736, -60.3118146, 140.16880388], [-121.60614342, -59.00647097, 142.17885179], [-121.73174948, -57.70112735, 144.1888997], [-121.85735602, -56.39578753, 146.19895524], [-121.98296208, -55.0904439, 148.20900315], [-122.10856862, -53.78510028, 150.2190587], [-122.23417468, -52.47976046, 152.22910661], [-122.35978121, -51.17441684, 154.23915452], [-122.48538727, -49.86907321, 156.24921006], [-122.61099381, -48.56373339, 158.25925798], [-122.73659987, -47.25838977, 160.26931352], [-122.86220641, -45.95304614, 162.27936143], [-122.98781247, -44.64770632, 164.28940934], [-123.113419, -43.3423627, 166.29946489], [-123.23902506, -42.03701907, 168.3095128], [-123.3646316, -40.73167926, 170.31956071]], "CsaImage.TimeAfterStart": [1.0975, 0.7325, 1.11, 0.7425, 1.12, 0.755, 1.13, 0.765, 1.14, 0.775, 1.1525, 0.7875, 1.1625, 0.7975, 1.1725, 0.8075, 1.185, 0.8175, 1.195, 0.83, 1.205, 0.84, 1.2175, 0.85, 1.2275, 0.8625, 1.2375, 0.8725, 1.2475, 0.8825, 1.26, 0.895, 1.27, 0.905, 1.28, 0.915, 1.2925, 0.925, 1.3025, 0.9375, 1.3125, 0.9475, 1.325, 0.9575, 1.335, 0.97, 1.345, 0.98, 1.355, 0.99, 1.3675, 1.0025, 1.3775, 1.0125, 1.3875, 1.0225, 1.4, 1.0325, 1.41, 1.045, 1.42, 1.055, 1.4325, 1.065, 1.4425, 1.0775, 1.4525, 1.0875], "ImagePositionPatient": [[-114.94900984334, -128.18961268156, 35.646156017352], [-115.07461614179, -126.88427096098, 37.656205837299], [-115.20022232102, -125.57892733305, 39.666257564593], [-115.32582861947, -124.27358561247, 41.676308338214], [-115.45143491792, -122.96824389189, 43.686359111835], [-115.57704121636, -121.66290026396, 45.696409885455], [-115.70264751481, -120.35755854338, 47.706460659076], [-115.82825381326, -119.0522168228, 49.716511432696], [-115.95386017131, -117.74687319487, 51.726562683154], [-116.07946646975, -116.44153147429, 53.736613456775], [-116.2050727086, -115.13618975371, 55.74666429], [-116.33067900704, -113.83084707945, 57.756715123225], [-116.45628533529, -112.52550535887, 59.766766016055], [-116.58189163374, -111.22016268462, 61.776817028094], [-116.70749791728, -109.91482001036, 63.786867801715], [-116.83310421573, -108.60947828978, 65.796918575336], [-116.95871050673, -107.30413561552, 67.806969348956], [-117.08431679772, -105.99879294127, 69.817020122577], [-117.20992309617, -104.69345122069, 71.827070896197], [-117.33552939462, -103.38810902327, 73.837121669818], [-117.46113569306, -102.08276634901, 75.847173397113], [-117.58674199151, -100.7774241516, 77.857223217059], [-117.71234828996, -99.472081834969, 79.867274944354], [-117.8379545884, -98.166739577946, 81.8773247643], [-117.96356088685, -96.861397320923, 83.887376491595], [-118.0891671853, -95.556054885086, 85.89742821889], [-118.21477348374, -94.250712687668, 87.907478038837], [-118.34037978219, -92.94537049025, 89.917529766132], [-118.46598608064, -91.640028292831, 91.927581493426], [-118.59159237908, -90.334685618576, 93.937629406024], [-118.71719867753, -89.029343897995, 95.947681133319], [-118.84280497598, -87.72400122374, 97.957732860614], [-118.96841115521, -86.418658549484, 99.967784587909], [-119.09401745366, -85.113316828903, 101.9778363152], [-119.21962375211, -83.807974154648, 103.9878842278], [-119.34523005055, -82.502631480392, 105.9979359551], [-119.470836349, -81.197289759811, 108.00798768239], [-119.59644264745, -79.89194803923, 110.01803940969], [-119.72204894589, -78.586604411301, 112.02808732228], [-119.84765524434, -77.28126269072, 114.03813904958], [-119.97326154279, -75.975920970138, 116.04819077687], [-120.09886784123, -74.670577342209, 118.05824250417], [-120.22447413968, -73.365235621628, 120.06829423146], [-120.35008043813, -72.059893901047, 122.07834214406], [-120.47568673657, -70.754550273117, 124.08839768605], [-120.60129303502, -69.449208552536, 126.09844559865], [-120.72689933347, -68.143866831955, 128.10849351125], [-120.85250563191, -66.838525111374, 130.11854905324], [-120.97811216878, -65.533181483444, 132.12859696584], [-121.10371822881, -64.227837855514, 134.13864487844], [-121.22932476567, -62.922498042282, 136.14870042043], [-121.3549308257, -61.617154414352, 138.15874833303], [-121.48053736256, -60.31181460112, 140.16880387502], [-121.60614342259, -59.00647097319, 142.17885178762], [-121.73174948262, -57.701127345261, 144.18889970021], [-121.85735601949, -56.395787532028, 146.19895524221], [-121.98296207951, -55.090443904098, 148.2090031548], [-122.10856861638, -53.785100276169, 150.2190586968], [-122.23417467641, -52.479760462936, 152.22910660939], [-122.35978121327, -51.174416835007, 154.23915452199], [-122.4853872733, -49.869073207077, 156.24921006398], [-122.61099381017, -48.563733393845, 158.25925797658], [-122.73659987019, -47.258389765915, 160.26931351857], [-122.86220640706, -45.953046137985, 162.27936143117], [-122.98781246709, -44.647706324753, 164.28940934377], [-123.11341900395, -43.342362696823, 166.29946488576], [-123.23902506398, -42.037019068893, 168.30951279836], [-123.36463160085, -40.731679255661, 170.31956071096]], "InstanceCreationTime": ["074632.203000", "074632.109000", "074632.203000", "074632.109000", "074632.203000", "074632.109000", "074632.203000", "074632.109000", "074632.203000", "074632.125000", "074632.203000", "074632.125000", "074632.218000", "074632.125000", "074632.218000", "074632.125000", "074632.234000", "074632.125000", "074632.234000", "074632.125000", "074632.250000", "074632.125000", "074632.250000", "074632.125000", "074632.250000", "074632.140000", "074632.250000", "074632.140000", "074632.250000", "074632.140000", "074632.250000", "074632.140000", "074632.265000", "074632.140000", "074632.265000", "074632.140000", "074632.265000", "074632.140000", "074632.281000", "074632.140000", "074632.281000", "074632.140000", "074632.281000", "074632.156000", "074632.281000", "074632.156000", "074632.281000", "074632.156000", "074632.281000", "074632.156000", "074632.281000", "074632.187000", "074632.296000", "074632.187000", "074632.296000", "074632.187000", "074632.296000", "074632.187000", "074632.296000", "074632.187000", "074632.296000", "074632.187000", "074632.296000", "074632.203000", "074632.296000", "074632.203000", "074632.296000", "074632.203000"], "InstanceNumber": [1, 2, 3, 4, 5, 6, 7, 8, 9, 10, 11, 12, 13, 14, 15, 16, 17, 18, 19, 20, 21, 22, 23, 24, 25, 26, 27, 28, 29, 30, 31, 32, 33, 34, 35, 36, 37, 38, 39, 40, 41, 42, 43, 44, 45, 46, 47, 48, 49, 50, 51, 52, 53, 54, 55, 56, 57, 58, 59, 60, 61, 62, 63, 64, 65, 66, 67, 68], "LargestImagePixelValue": [4094, 4094, 4093, 4094, 4094, 4094, 4094, 4093, 4094, 4094, 4094, 4091, 4093, 4092, 4088, 4091, 4094, 4091, 4094, 4089, 4094, 4092, 4094, 4091, 4092, 4094, 4092, 4093, 4094, 4092, 4094, 4090, 4092, 4094, 4092, 4092, 4092, 4094, 4094, 4094, 4094, 4094, 4094, 4092, 4094, 4093, 4091, 4093, 4094, 4093, 4094, 4094, 4094, 4094, 4092, 4093, 4094, 4094, 4093, 4093, 4094, 4094, 4094, 4093, 4094, 4094, 4093, 4094], "SliceLocation": [-33.851006862039, -31.451008064463, -29.051006638289, -26.65100704199, -24.251007445692, -21.851006812001, -19.451007215703, -17.051007619405, -14.651006583233, -12.251006986935, -9.8510073438357, -7.4510071789209, -5.0510074812227, -2.6510071665474, -0.2510070523326, 2.1489925439656, 4.5489926585703, 6.948992773175, 9.3489923694732, 11.74899222512, 14.148993138837, 16.548992195761, 18.948992914967, 21.348992004309, 23.748992691097, 26.14899347514, 28.548992532064, 30.948993186432, 33.348993840801, 35.748991559629, 38.148991954649, 40.548992868366, 42.948993775844, 45.348994170865, 47.748991889692, 50.14899280341, 52.54899319843, 54.948993593451, 57.348991830975, 59.748992225995, 62.148992621016, 64.548994053429, 66.94899444845, 69.348991648581, 71.748996275884, 74.148993476015, 76.548990676146, 78.948994266056, 81.348992516058, 83.748990741104, 86.148993306099, 88.548991531145, 90.948994096141, 93.348992321187, 95.748990546232, 98.148993111228, 100.54899133627, 102.94899597605, 105.34899212632, 107.74899037632, 110.14899499114, 112.54899116636, 114.94899578118, 117.34899403119, 119.74899018145, 122.14899482123, 124.54899304627, 126.94898922149], "SmallestImagePixelValue": [0, 3, 0, 0, 0, 0, 0, 0, 1, 1, 0, 0, 0, 0, 2, 1, 0, 2, 1, 1, 0, 0, 5, 1, 2, 1, 0, 0, 1, 1, 2, 0, 9, 1, 1, 12, 0, 3, 2, 0, 3, 0, 1, 0, 0, 1, 0, 1, 4, 1, 1, 0, 1, 1, 0, 1, 4, 1, 2, 0, 1, 1, 0, 1, 0, 0, 0, 0], "WindowCenter": [-306.0, -306.0, -312.0, -348.0, -466.0, -434.0, -442.0, -472.0, -524.0, -610.0, -580.0, -570.0, -534.0, -544.0, -554.0, -536.0, -502.0, -476.0, -460.0, -414.0, -410.0, -388.0, -354.0, -324.0, -302.0, -290.0, -268.0, -278.0, -248.0, -258.0, -260.0, -240.0, -216.0, -220.0, -224.0, -218.0, -188.0, -186.0, -174.0, -128.0, -126.0, -166.0, -162.0, -210.0, -240.0, -256.0, -244.0, -220.0, -238.0, -234.0, -222.0, -218.0, -232.0, -248.0, -296.0, -324.0, -300.0, -316.0, -318.0, -388.0, -414.0, -410.0, -448.0, -452.0, -460.0, -474.0, -458.0, -446.0], "WindowWidth": [6106.0, 6138.0, 6022.0, 5778.0, 5022.0, 5014.0, 4972.0, 4972.0, 4888.0, 4896.0, 4824.0, 4740.0, 4714.0, 4724.0, 4670.0, 4648.0, 4572.0, 4524.0, 4432.0, 4394.0, 4290.0, 4250.0, 4232.0, 4188.0, 4054.0, 4012.0, 3934.0, 3930.0, 3888.0, 3926.0, 3908.0, 3918.0, 3940.0, 3990.0, 3970.0, 4060.0, 4064.0, 4090.0, 4118.0, 4146.0, 4098.0, 4170.0, 4164.0, 4196.0, 4192.0, 4210.0, 4202.0, 4232.0, 4244.0, 4276.0, 4244.0, 4266.0, 4278.0, 4278.0, 4308.0, 4302.0, 4404.0, 4404.0, 4512.0, 4574.0, 4660.0, 4690.0, 4768.0, 4816.0, 4872.0, 4906.0, 4938.0, 5004.0]}}}