{"AcquisitionMatrixPE": 96, "AcquisitionNumber": 1, "AcquisitionTime": "07:47:44.857500", "BandwidthPerPixelPhaseEncode": 33.602, "BaseResolution": 96, "BodyPartExamined": "BRAIN", "ConsistencyInfo": "N4_VD11D_LATEST_20110129", "ConversionSoftware": "dcm2niix", "ConversionSoftwareVersion": "v1.0.20210317", "DerivedVendorReportedEchoSpacing": 0.000620003, "DeviceSerialNumber": "45239", "DwellTime": 2.6e-06, "EchoTime": 0.03, "EchoTrainLength": 48, "EffectiveEchoSpacing": 0.000310001, "FlipAngle": 63, "ImageComments": "Unaliased MB4/PE3", "ImageOrientationPatientDICOM": [0.99962, 0.0213166, 0.0174564, -0.00859601, 0.843239, -0.53747], "ImageType": ["ORIGINAL", "PRIMARY", "M", "ND", "NORM", "MOSAIC"], "ImagingFrequency": 123.193, "InPlanePhaseEncodingDirectionDICOM": "COL", "InstitutionAddress": "E 24th St. 100,Austin,Southmiddle,US,78712", "InstitutionName": "Univ of Texas at Austin", "InstitutionalDepartmentName": "IRC", "MRAcquisitionType": "2D", "MagneticFieldStrength": 3, "Manufacturer": "Siemens", "ManufacturersModelName": "Skyra", "Modality": "MR", "MultibandAccelerationFactor": 4, "ParallelReductionFactorInPlane": 2, "PartialFourier": 1, "PatientPosition": "HFS", "PercentPhaseFOV": 100, "PercentSampling": 100, "PhaseEncodingDirection": "j-", "PhaseEncodingSteps": 96, "PhaseResolution": 1, "PixelBandwidth": 2005, "ProcedureStepDescription": "Poldrack2^self-scanning", "ProtocolName": "dots_motion", "PulseSequenceDetails": "%CustomerSeq%\\cmrr_mbep2d_bold", "ReceiveCoilActiveElements": "HEA;HEP", "ReceiveCoilName": "Head_32", "ReconMatrixPE": 96, "RefLinesPE": 94, "RepetitionTime": 1.16, "SAR": 0.107265, "ScanOptions": "FS", "ScanningSequence": "EP", "SequenceName": "epfid2d1_96", "SequenceVariant": "SK", "SeriesDescription": "dots_motion", "SeriesNumber": 8, "ShimSetting": [-2768, 8052, -15400, 109, -161, 146, 254, -71], "SliceThickness": 2, "SliceTiming": [0, 0.5, 0.9975, 0.3575, 0.855, 0.215, 0.7125, 0.0725, 0.57, 1.07, 0.4275, 0.9275, 0.285, 0.785, 0.1425, 0.6425, 0, 0.5, 0.9975, 0.3575, 0.855, 0.215, 0.7125, 0.0725, 0.57, 1.07, 0.4275, 0.9275, 0.285, 0.785, 0.1425, 0.6425, 0, 0.5, 0.9975, 0.3575, 0.855, 0.215, 0.7125, 0.0725, 0.57, 1.07, 0.4275, 0.9275, 0.285, 0.785, 0.1425, 0.6425, 0, 0.5, 0.9975, 0.3575, 0.855, 0.215, 0.7125, 0.0725, 0.57, 1.07, 0.4275, 0.9275, 0.285, 0.785, 0.1425, 0.6425], "SoftwareVersions": "syngo MR D11", "SpacingBetweenSlices": 2.4, "StationName": "AWP45239", "TaskName": "Dot motion stop-signal task", "TotalReadoutTime": 0.0294501, "TxRefAmp": 347.06, "WipMemBlock": "0b1f4a14-9a11-496c-8d5a-3ba06ed186b6||Sequence: VD11D r206; Feb 13 2013 18:52:04 by eja", "dcmmeta_affine": [[-2.394923686981201, -0.02059459686279297, 0.06282470375299454, 117.92240905761719], [-0.05107109993696213, 2.020260810852051, -1.2890771627426147, -71.3111801147461], [0.041822612285614014, 1.2876875400543213, 2.0234458446502686, -84.72621154785156], [0.0, 0.0, 0.0, 1.0]], "dcmmeta_reorient_transform": [[0.0, -1.0, 0.0, 95.0], [1.0, 0.0, 0.0, 0.0], [0.0, 0.0, 1.0, 0.0], [0.0, 0.0, 0.0, 1.0]], "dcmmeta_shape": [96, 96, 64, 372], "dcmmeta_slice_dim": 2, "dcmmeta_version": 0.6, "global": {"const": {"AcquisitionMatrix": [96, 0, 0, 96], "AngioFlag": "N", "BitsAllocated": 16, "BitsStored": 16, "BodyPartExamined": "BRAIN", "Columns": 768, "EchoNumbers": 1, "EchoTime": 30.0, "EchoTrainLength": 48, "FlipAngle": 63.0, "HighBit": 15, "ImageOrientationPatient": [0.99962036563913, 0.02131663402575, 0.017456394625, -0.0085960061229, 0.84323932057174, -0.5374695869725], "ImagePositionPatient": [-913.7405088062, -816.58112050093, 456.21470859936], "ImageType": ["ORIGINAL", "PRIMARY", "M", "ND", "NORM", "MOSAIC"], "ImagedNucleus": "1H", "ImagingFrequency": 123.193167, "InPlanePhaseEncodingDirection": "COL", "MRAcquisitionType": "2D", "MagneticFieldStrength": 3.0, "Manufacturer": "SIEMENS", "ManufacturerModelName": "Skyra", "Modality": "MR", "NumberOfAverages": 1.0, "NumberOfPhaseEncodingSteps": 96, "PercentPhaseFieldOfView": 100.0, "PercentSampling": 100.0, "PerformedProcedureStepStartTime": "071738.593000", "PhotometricInterpretation": "MONOCHROME2", "PixelBandwidth": 2005.0, "PixelRepresentation": 0, "PixelSpacing": [2.3958332538605, 2.3958332538605], "ProtocolName": "dots_motion", "RepetitionTime": 1160.0, "Rows": 768, "SAR": 0.10726512751231, "SamplesPerPixel": 1, "ScanOptions": "FS", "ScanningSequence": "EP", "SequenceName": "epfid2d1_96", "SequenceVariant": "SK", "SeriesDescription": "dots_motion", "SeriesNumber": 8, "SeriesTime": "074824.234000", "SliceLocation": -30.043686872885, "SliceThickness": 2.0, "SmallestImagePixelValue": 0, "SoftwareVersions": "syngo MR D11", "SpacingBetweenSlices": 2.4000000374285, "SpecificCharacterSet": "ISO_IR 100", "StudyID": "1", "StudyTime": "071738.546000", "TransmitCoilName": "Body", "VariableFlipAngleFlag": "N", "WindowCenterWidthExplanation": "Algo1", "dBdt": 0.0}, "slices": {}}, "time": {"samples": {"AcquisitionNumber": [1, 2, 3, 4, 5, 6, 7, 8, 9, 10, 11, 12, 13, 14, 15, 16, 17, 18, 19, 20, 21, 22, 23, 24, 25, 26, 27, 28, 29, 30, 31, 32, 33, 34, 35, 36, 37, 38, 39, 40, 41, 42, 43, 44, 45, 46, 47, 48, 49, 50, 51, 52, 53, 54, 55, 56, 57, 58, 59, 60, 61, 62, 63, 64, 65, 66, 67, 68, 69, 70, 71, 72, 73, 74, 75, 76, 77, 78, 79, 80, 81, 82, 83, 84, 85, 86, 87, 88, 89, 90, 91, 92, 93, 94, 95, 96, 97, 98, 99, 100, 101, 102, 103, 104, 105, 106, 107, 108, 109, 110, 111, 112, 113, 114, 115, 116, 117, 118, 119, 120, 121, 122, 123, 124, 125, 126, 127, 128, 129, 130, 131, 132, 133, 134, 135, 136, 137, 138, 139, 140, 141, 142, 143, 144, 145, 146, 147, 148, 149, 150, 151, 152, 153, 154, 155, 156, 157, 158, 159, 160, 161, 162, 163, 164, 165, 166, 167, 168, 169, 170, 171, 172, 173, 174, 175, 176, 177, 178, 179, 180, 181, 182, 183, 184, 185, 186, 187, 188, 189, 190, 191, 192, 193, 194, 195, 196, 197, 198, 199, 200, 201, 202, 203, 204, 205, 206, 207, 208, 209, 210, 211, 212, 213, 214, 215, 216, 217, 218, 219, 220, 221, 222, 223, 224, 225, 226, 227, 228, 229, 230, 231, 232, 233, 234, 235, 236, 237, 238, 239, 240, 241, 242, 243, 244, 245, 246, 247, 248, 249, 250, 251, 252, 253, 254, 255, 256, 257, 258, 259, 260, 261, 262, 263, 264, 265, 266, 267, 268, 269, 270, 271, 272, 273, 274, 275, 276, 277, 278, 279, 280, 281, 282, 283, 284, 285, 286, 287, 288, 289, 290, 291, 292, 293, 294, 295, 296, 297, 298, 299, 300, 301, 302, 303, 304, 305, 306, 307, 308, 309, 310, 311, 312, 313, 314, 315, 316, 317, 318, 319, 320, 321, 322, 323, 324, 325, 326, 327, 328, 329, 330, 331, 332, 333, 334, 335, 336, 337, 338, 339, 340, 341, 342, 343, 344, 345, 346, 347, 348, 349, 350, 351, 352, 353, 354, 355, 356, 357, 358, 359, 360, 361, 362, 363, 364, 365, 366, 367, 368, 369, 370, 371, 372], "AcquisitionTime": ["074744.857500", "074813.857500", "074815.017500", "074816.177500", "074817.337500", "074818.497500", "074819.657500", "074820.817500", "074821.977500", "074823.137500", "074824.297500", "074825.457500", "074826.617500", "074827.777500", "074828.937500", "074830.097500", "074831.257500", "074832.417500", "074833.577500", "074834.737500", "074835.897500", "074837.057500", "074838.217500", "074839.377500", "074840.537500", "074841.697500", "074842.857500", "074844.017500", "074845.177500", "074846.337500", "074847.497500", "074848.657500", "074849.817500", "074850.977500", "074852.137500", "074853.297500", "074854.457500", "074855.617500", "074856.777500", "074857.937500", "074859.097500", "074900.257500", "074901.417500", "074902.577500", "074903.737500", "074904.897500", "074906.057500", "074907.217500", "074908.377500", "074909.537500", "074910.697500", "074911.857500", "074913.017500", "074914.177500", "074915.337500", "074916.497500", "074917.657500", "074918.817500", "074919.977500", "074921.137500", "074922.297500", "074923.457500", "074924.617500", "074925.777500", "074926.937500", "074928.097500", "074929.257500", "074930.417500", "074931.577500", "074932.740000", "074933.900000", "074935.060000", "074936.220000", "074937.380000", "074938.540000", "074939.700000", "074940.860000", "074942.020000", "074943.180000", "074944.340000", "074945.500000", "074946.660000", "074947.820000", "074948.980000", "074950.140000", "074951.300000", "074952.460000", "074953.620000", "074954.780000", "074955.940000", "074957.100000", "074958.260000", "074959.420000", "075000.580000", "075001.740000", "075002.900000", "075004.060000", "075005.220000", "075006.380000", "075007.540000", "075008.700000", "075009.860000", "075011.020000", "075012.180000", "075013.340000", "075014.500000", "075015.660000", "075016.820000", "075017.980000", "075019.140000", "075020.300000", "075021.460000", "075022.620000", "075023.780000", "075024.940000", "075026.100000", "075027.260000", "075028.420000", "075029.580000", "075030.740000", "075031.900000", "075033.060000", "075034.220000", "075035.380000", "075036.540000", "075037.700000", "075038.860000", "075040.020000", "075041.180000", "075042.340000", "075043.500000", "075044.660000", "075045.820000", "075046.980000", "075048.140000", "075049.300000", "075050.460000", "075051.620000", "075052.780000", "075053.940000", "075055.100000", "075056.260000", "075057.420000", "075058.580000", "075059.740000", "075100.900000", "075102.060000", "075103.220000", "075104.380000", "075105.540000", "075106.700000", "075107.860000", "075109.020000", "075110.180000", "075111.340000", "075112.500000", "075113.660000", "075114.820000", "075115.980000", "075117.140000", "075118.300000", "075119.460000", "075120.620000", "075121.780000", "075122.940000", "075124.100000", "075125.260000", "075126.420000", "075127.580000", "075128.740000", "075129.900000", "075131.060000", "075132.220000", "075133.380000", "075134.540000", "075135.700000", "075136.860000", "075138.020000", "075139.180000", "075140.340000", "075141.500000", "075142.660000", "075143.820000", "075144.980000", "075146.140000", "075147.300000", "075148.460000", "075149.620000", "075150.780000", "075151.940000", "075153.100000", "075154.260000", "075155.420000", "075156.580000", "075157.740000", "075158.900000", "075200.060000", "075201.220000", "075202.380000", "075203.540000", "075204.700000", "075205.860000", "075207.020000", "075208.180000", "075209.340000", "075210.500000", "075211.660000", "075212.820000", "075213.980000", "075215.140000", "075216.300000", "075217.460000", "075218.620000", "075219.780000", "075220.940000", "075222.100000", "075223.260000", "075224.420000", "075225.580000", "075226.740000", "075227.900000", "075229.060000", "075230.220000", "075231.380000", "075232.540000", "075233.700000", "075234.860000", "075236.020000", "075237.180000", "075238.340000", "075239.500000", "075240.660000", "075241.820000", "075242.980000", "075244.140000", "075245.300000", "075246.460000", "075247.620000", "075248.780000", "075249.940000", "075251.100000", "075252.260000", "075253.420000", "075254.580000", "075255.740000", "075256.900000", "075258.060000", "075259.220000", "075300.380000", "075301.540000", "075302.700000", "075303.860000", "075305.020000", "075306.180000", "075307.340000", "075308.500000", "075309.660000", "075310.820000", "075311.980000", "075313.140000", "075314.300000", "075315.460000", "075316.620000", "075317.780000", "075318.940000", "075320.100000", "075321.260000", "075322.420000", "075323.580000", "075324.740000", "075325.900000", "075327.060000", "075328.220000", "075329.380000", "075330.540000", "075331.700000", "075332.860000", "075334.020000", "075335.180000", "075336.340000", "075337.500000", "075338.660000", "075339.820000", "075340.980000", "075342.140000", "075343.300000", "075344.460000", "075345.620000", "075346.780000", "075347.940000", "075349.100000", "075350.260000", "075351.420000", "075352.580000", "075353.740000", "075354.900000", "075356.060000", "075357.220000", "075358.380000", "075359.540000", "075400.700000", "075401.860000", "075403.020000", "075404.180000", "075405.340000", "075406.500000", "075407.660000", "075408.820000", "075409.980000", "075411.140000", "075412.300000", "075413.460000", "075414.620000", "075415.780000", "075416.940000", "075418.100000", "075419.260000", "075420.420000", "075421.580000", "075422.742500", "075423.902500", "075425.062500", "075426.222500", "075427.382500", "075428.542500", "075429.702500", "075430.862500", "075432.022500", "075433.182500", "075434.342500", "075435.502500", "075436.662500", "075437.822500", "075438.982500", "075440.142500", "075441.302500", "075442.462500", "075443.622500", "075444.782500", "075445.942500", "075447.102500", "075448.262500", "075449.422500", "075450.582500", "075451.742500", "075452.902500", "075454.062500", "075455.222500", "075456.382500", "075457.542500", "075458.702500", "075459.862500", "075501.022500", "075502.182500", "075503.342500", "075504.502500", "075505.662500", "075506.822500", "075507.982500", "075509.142500", "075510.302500", "075511.462500", "075512.622500", "075513.782500", "075514.942500", "075516.102500", "075517.262500", "075518.422500", "075519.582500", "075520.742500", "075521.902500", "075523.062500"], "ContentTime": ["074824.234000", "074832.953000", "074832.953000", "074832.953000", "074832.953000", "074832.968000", "074832.968000", "074832.968000", "074837.953000", "074837.953000", "074837.953000", "074837.968000", "074842.953000", "074842.953000", "074842.953000", "074842.984000", "074847.953000", "074847.953000", "074847.953000", "074852.953000", "074852.953000", "074852.953000", "074852.953000", "074857.953000", "074857.968000", "074857.968000", "074857.968000", "074902.953000", "074902.953000", "074902.953000", "074907.953000", "074907.953000", "074907.953000", "074907.953000", "074912.953000", "074912.953000", "074912.968000", "074912.968000", "074917.953000", "074917.953000", "074917.953000", "074917.953000", "074922.953000", "074922.953000", "074922.953000", "074922.953000", "074927.953000", "074927.953000", "074927.953000", "074932.953000", "074932.953000", "074932.953000", "074932.953000", "074937.953000", "074937.953000", "074937.968000", "074937.968000", "074942.953000", "074942.953000", "074942.953000", "074947.953000", "074947.984000", "074947.984000", "074947.984000", "074952.953000", "074952.953000", "074952.953000", "074952.953000", "074957.953000", "074957.953000", "074957.968000", "074957.968000", "075002.953000", "075002.953000", "075002.953000", "075007.953000", "075007.953000", "075007.953000", "075007.968000", "075012.953000", "075012.953000", "075012.953000", "075012.953000", "075017.953000", "075017.953000", "075017.968000", "075017.968000", "075022.953000", "075022.953000", "075022.968000", "075027.953000", "075027.953000", "075027.953000", "075027.953000", "075032.953000", "075032.953000", "075032.953000", "075032.953000", "075037.953000", "075037.953000", "075037.953000", "075042.953000", "075042.953000", "075042.953000", "075042.953000", "075047.953000", "075047.953000", "075047.968000", "075052.953000", "075052.953000", "075052.953000", "075052.953000", "075057.953000", "075057.953000", "075057.953000", "075057.953000", "075102.953000", "075102.953000", "075102.953000", "075107.953000", "075107.953000", "075107.968000", "075107.968000", "075112.953000", "075112.953000", "075112.953000", "075112.953000", "075117.953000", "075117.953000", "075117.953000", "075122.953000", "075122.953000", "075122.953000", "075122.953000", "075122.968000", "075127.953000", "075127.953000", "075127.953000", "075132.953000", "075132.953000", "075132.953000", "075132.953000", "075137.953000", "075137.953000", "075137.968000", "075137.968000", "075142.953000", "075142.953000", "075142.968000", "075142.968000", "075147.953000", "075147.953000", "075147.953000", "075147.953000", "075152.953000", "075152.953000", "075152.953000", "075157.953000", "075157.953000", "075157.953000", "075157.953000", "075202.953000", "075202.953000", "075202.953000", "075207.953000", "075207.953000", "075207.953000", "075207.953000", "075212.953000", "075212.953000", "075212.953000", "075212.953000", "075217.953000", "075217.953000", "075217.953000", "075217.953000", "075222.953000", "075222.953000", "075222.953000", "075222.953000", "075227.953000", "075227.953000", "075227.953000", "075227.953000", "075232.953000", "075232.953000", "075232.953000", "075237.953000", "075237.953000", "075237.953000", "075237.968000", "075242.953000", "075242.953000", "075242.968000", "075242.968000", "075247.953000", "075247.953000", "075247.953000", "075247.953000", "075252.953000", "075252.953000", "075252.953000", "075257.953000", "075257.953000", "075257.953000", "075257.968000", "075302.953000", "075302.953000", "075302.968000", "075302.968000", "075307.953000", "075307.953000", "075307.953000", "075312.953000", "075312.953000", "075312.953000", "075312.953000", "075317.953000", "075317.953000", "075317.953000", "075322.953000", "075322.968000", "075322.968000", "075322.984000", "075327.953000", "075327.953000", "075327.953000", "075327.953000", "075332.953000", "075332.953000", "075332.953000", "075337.953000", "075337.953000", "075337.953000", "075337.953000", "075342.953000", "075342.953000", "075342.953000", "075342.953000", "075347.953000", "075347.953000", "075347.953000", "075357.953000", "075357.953000", "075357.953000", "075357.953000", "075357.968000", "075357.968000", "075357.968000", "075357.968000", "075402.953000", "075402.953000", "075402.953000", "075407.953000", "075407.953000", "075407.953000", "075407.953000", "075412.953000", "075412.953000", "075412.968000", "075412.968000", "075417.953000", "075417.953000", "075417.953000", "075417.968000", "075422.953000", "075422.953000", "075422.953000", "075422.953000", "075427.953000", "075427.953000", "075427.953000", "075432.953000", "075432.953000", "075432.953000", "075432.953000", "075437.953000", "075437.953000", "075437.953000", "075437.968000", "075442.953000", "075442.968000", "075442.968000", "075447.953000", "075447.953000", "075447.953000", "075447.953000", "075447.968000", "075452.953000", "075452.953000", "075452.968000", "075452.968000", "075457.953000", "075457.953000", "075457.953000", "075502.953000", "075502.953000", "075502.968000", "075502.968000", "075507.953000", "075507.953000", "075507.953000", "075507.953000", "075512.953000", "075512.953000", "075512.953000", "075512.953000", "075517.953000", "075517.953000", "075517.953000", "075522.953000", "075522.953000", "075522.953000", "075522.953000", "075527.953000", "075527.953000", "075527.953000", "075527.953000", "075532.953000", "075532.953000", "075532.953000", "075532.953000", "075537.953000", "075537.953000", "075537.953000", "075537.953000", "075542.953000", "075542.953000", "075542.953000", "075542.953000", "075547.953000", "075547.953000", "075547.953000", "075547.953000", "075552.953000", "075552.953000", "075552.953000", "075552.953000", "075557.953000", "075557.953000", "075557.953000", "075557.953000", "075602.953000", "075602.953000", "075602.953000", "075602.953000", "075607.953000", "075607.953000", "075607.953000", "075607.953000", "075612.953000", "075612.953000", "075612.953000", "075612.953000", "075617.953000", "075617.953000", "075617.968000", "075617.968000", "075622.953000", "075622.953000", "075622.953000", "075622.953000", "075627.953000", "075627.953000", "075627.968000", "075627.968000", "075632.953000", "075632.953000", "075632.953000", "075632.953000", "075634.484000", "075634.484000"], "InstanceCreationTime": ["074824.234000", "074832.953000", "074832.953000", "074832.953000", "074832.953000", "074832.968000", "074832.968000", "074832.968000", "074837.953000", "074837.953000", "074837.953000", "074837.968000", "074842.953000", "074842.953000", "074842.953000", "074842.984000", "074847.953000", "074847.953000", "074847.953000", "074852.953000", "074852.953000", "074852.953000", "074852.953000", "074857.953000", "074857.968000", "074857.968000", "074857.968000", "074902.953000", "074902.953000", "074902.953000", "074907.953000", "074907.953000", "074907.953000", "074907.953000", "074912.953000", "074912.953000", "074912.968000", "074912.968000", "074917.953000", "074917.953000", "074917.953000", "074917.953000", "074922.953000", "074922.953000", "074922.953000", "074922.953000", "074927.953000", "074927.953000", "074927.953000", "074932.953000", "074932.953000", "074932.953000", "074932.953000", "074937.953000", "074937.953000", "074937.968000", "074937.968000", "074942.953000", "074942.953000", "074942.953000", "074947.953000", "074947.984000", "074947.984000", "074947.984000", "074952.953000", "074952.953000", "074952.953000", "074952.953000", "074957.953000", "074957.953000", "074957.968000", "074957.968000", "075002.953000", "075002.953000", "075002.953000", "075007.953000", "075007.953000", "075007.953000", "075007.968000", "075012.953000", "075012.953000", "075012.953000", "075012.953000", "075017.953000", "075017.953000", "075017.968000", "075017.968000", "075022.953000", "075022.953000", "075022.968000", "075027.953000", "075027.953000", "075027.953000", "075027.953000", "075032.953000", "075032.953000", "075032.953000", "075032.953000", "075037.953000", "075037.953000", "075037.953000", "075042.953000", "075042.953000", "075042.953000", "075042.953000", "075047.953000", "075047.953000", "075047.968000", "075052.953000", "075052.953000", "075052.953000", "075052.953000", "075057.953000", "075057.953000", "075057.953000", "075057.953000", "075102.953000", "075102.953000", "075102.953000", "075107.953000", "075107.953000", "075107.968000", "075107.968000", "075112.953000", "075112.953000", "075112.953000", "075112.953000", "075117.953000", "075117.953000", "075117.953000", "075122.953000", "075122.953000", "075122.953000", "075122.953000", "075122.968000", "075127.953000", "075127.953000", "075127.953000", "075132.953000", "075132.953000", "075132.953000", "075132.953000", "075137.953000", "075137.953000", "075137.968000", "075137.968000", "075142.953000", "075142.953000", "075142.968000", "075142.968000", "075147.953000", "075147.953000", "075147.953000", "075147.953000", "075152.953000", "075152.953000", "075152.953000", "075157.953000", "075157.953000", "075157.953000", "075157.953000", "075202.953000", "075202.953000", "075202.953000", "075207.953000", "075207.953000", "075207.953000", "075207.953000", "075212.953000", "075212.953000", "075212.953000", "075212.953000", "075217.953000", "075217.953000", "075217.953000", "075217.953000", "075222.953000", "075222.953000", "075222.953000", "075222.953000", "075227.953000", "075227.953000", "075227.953000", "075227.953000", "075232.953000", "075232.953000", "075232.953000", "075237.953000", "075237.953000", "075237.953000", "075237.968000", "075242.953000", "075242.953000", "075242.968000", "075242.968000", "075247.953000", "075247.953000", "075247.953000", "075247.953000", "075252.953000", "075252.953000", "075252.953000", "075257.953000", "075257.953000", "075257.953000", "075257.968000", "075302.953000", "075302.953000", "075302.968000", "075302.968000", "075307.953000", "075307.953000", "075307.953000", "075312.953000", "075312.953000", "075312.953000", "075312.953000", "075317.953000", "075317.953000", "075317.953000", "075322.953000", "075322.968000", "075322.968000", "075322.984000", "075327.953000", "075327.953000", "075327.953000", "075327.953000", "075332.953000", "075332.953000", "075332.953000", "075337.953000", "075337.953000", "075337.953000", "075337.953000", "075342.953000", "075342.953000", "075342.953000", "075342.953000", "075347.953000", "075347.953000", "075347.953000", "075357.953000", "075357.953000", "075357.953000", "075357.953000", "075357.968000", "075357.968000", "075357.968000", "075357.968000", "075402.953000", "075402.953000", "075402.953000", "075407.953000", "075407.953000", "075407.953000", "075407.953000", "075412.953000", "075412.953000", "075412.968000", "075412.968000", "075417.953000", "075417.953000", "075417.953000", "075417.968000", "075422.953000", "075422.953000", "075422.953000", "075422.953000", "075427.953000", "075427.953000", "075427.953000", "075432.953000", "075432.953000", "075432.953000", "075432.953000", "075437.953000", "075437.953000", "075437.953000", "075437.968000", "075442.953000", "075442.968000", "075442.968000", "075447.953000", "075447.953000", "075447.953000", "075447.953000", "075447.968000", "075452.953000", "075452.953000", "075452.968000", "075452.968000", "075457.953000", "075457.953000", "075457.953000", "075502.953000", "075502.953000", "075502.968000", "075502.968000", "075507.953000", "075507.953000", "075507.953000", "075507.953000", "075512.953000", "075512.953000", "075512.953000", "075512.953000", "075517.953000", "075517.953000", "075517.953000", "075522.953000", "075522.953000", "075522.953000", "075522.953000", "075527.953000", "075527.953000", "075527.953000", "075527.953000", "075532.953000", "075532.953000", "075532.953000", "075532.953000", "075537.953000", "075537.953000", "075537.953000", "075537.953000", "075542.953000", "075542.953000", "075542.953000", "075542.953000", "075547.953000", "075547.953000", "075547.953000", "075547.953000", "075552.953000", "075552.953000", "075552.953000", "075552.953000", "075557.953000", "075557.953000", "075557.953000", "075557.953000", "075602.953000", "075602.953000", "075602.953000", "075602.953000", "075607.953000", "075607.953000", "075607.953000", "075607.953000", "075612.953000", "075612.953000", "075612.953000", "075612.953000", "075617.953000", "075617.953000", "075617.968000", "075617.968000", "075622.953000", "075622.953000", "075622.953000", "075622.953000", "075627.953000", "075627.953000", "075627.968000", "075627.968000", "075632.953000", "075632.953000", "075632.953000", "075632.953000", "075634.484000", "075634.484000"], "InstanceNumber": [1, 2, 3, 4, 5, 6, 7, 8, 9, 10, 11, 12, 13, 14, 15, 16, 17, 18, 19, 20, 21, 22, 23, 24, 25, 26, 27, 28, 29, 30, 31, 32, 33, 34, 35, 36, 37, 38, 39, 40, 41, 42, 43, 44, 45, 46, 47, 48, 49, 50, 51, 52, 53, 54, 55, 56, 57, 58, 59, 60, 61, 62, 63, 64, 65, 66, 67, 68, 69, 70, 71, 72, 73, 74, 75, 76, 77, 78, 79, 80, 81, 82, 83, 84, 85, 86, 87, 88, 89, 90, 91, 92, 93, 94, 95, 96, 97, 98, 99, 100, 101, 102, 103, 104, 105, 106, 107, 108, 109, 110, 111, 112, 113, 114, 115, 116, 117, 118, 119, 120, 121, 122, 123, 124, 125, 126, 127, 128, 129, 130, 131, 132, 133, 134, 135, 136, 137, 138, 139, 140, 141, 142, 143, 144, 145, 146, 147, 148, 149, 150, 151, 152, 153, 154, 155, 156, 157, 158, 159, 160, 161, 162, 163, 164, 165, 166, 167, 168, 169, 170, 171, 172, 173, 174, 175, 176, 177, 178, 179, 180, 181, 182, 183, 184, 185, 186, 187, 188, 189, 190, 191, 192, 193, 194, 195, 196, 197, 198, 199, 200, 201, 202, 203, 204, 205, 206, 207, 208, 209, 210, 211, 212, 213, 214, 215, 216, 217, 218, 219, 220, 221, 222, 223, 224, 225, 226, 227, 228, 229, 230, 231, 232, 233, 234, 235, 236, 237, 238, 239, 240, 241, 242, 243, 244, 245, 246, 247, 248, 249, 250, 251, 252, 253, 254, 255, 256, 257, 258, 259, 260, 261, 262, 263, 264, 265, 266, 267, 268, 269, 270, 271, 272, 273, 274, 275, 276, 277, 278, 279, 280, 281, 282, 283, 284, 285, 286, 287, 288, 289, 290, 291, 292, 293, 294, 295, 296, 297, 298, 299, 300, 301, 302, 303, 304, 305, 306, 307, 308, 309, 310, 311, 312, 313, 314, 315, 316, 317, 318, 319, 320, 321, 322, 323, 324, 325, 326, 327, 328, 329, 330, 331, 332, 333, 334, 335, 336, 337, 338, 339, 340, 341, 342, 343, 344, 345, 346, 347, 348, 349, 350, 351, 352, 353, 354, 355, 356, 357, 358, 359, 360, 361, 362, 363, 364, 365, 366, 367, 368, 369, 370, 371, 372], "LargestImagePixelValue": [27250, 27254, 26313, 26347, 26619, 26420, 29440, 26600, 27036, 26529, 27042, 28081, 26826, 26886, 26692, 26865, 26756, 26626, 26662, 27081, 27034, 26871, 26593, 26779, 27215, 26967, 26846, 26990, 26807, 26876, 27262, 26981, 27200, 26933, 27384, 27339, 27217, 27464, 27271, 26929, 27112, 27107, 27040, 26726, 30395, 27235, 27332, 27279, 26816, 28665, 27084, 27114, 26752, 27132, 27365, 27066, 27318, 27328, 27034, 27106, 27551, 27789, 27473, 29275, 27216, 29599, 27583, 27743, 27730, 27545, 27792, 27766, 27647, 27867, 27584, 28856, 27697, 27905, 27914, 27689, 27924, 27979, 27686, 27707, 27628, 27597, 27798, 27967, 27761, 28467, 27487, 27625, 28013, 27747, 27726, 27832, 27690, 27883, 28072, 27793, 27835, 27702, 27829, 28285, 28116, 28359, 27922, 28033, 28096, 28130, 28251, 28267, 28175, 28029, 28166, 28426, 28082, 31803, 28135, 27911, 28083, 28262, 28358, 27919, 28020, 28261, 28333, 28137, 28414, 28144, 28212, 28383, 28324, 28209, 28101, 28131, 28426, 28383, 28335, 28222, 28078, 28292, 28222, 28207, 28183, 28198, 28180, 28436, 27961, 28274, 27886, 27978, 29047, 28190, 28388, 28327, 28171, 29418, 28158, 28283, 28259, 28225, 29772, 28339, 28685, 28428, 29309, 28269, 28229, 28243, 28201, 28359, 28277, 28341, 28275, 28245, 28551, 28467, 28520, 28262, 28564, 30383, 28451, 28206, 28416, 28275, 28335, 28113, 28311, 28293, 28283, 28324, 28246, 28503, 28366, 28448, 28361, 28398, 28674, 28151, 28094, 28487, 28276, 28482, 28296, 28313, 28495, 28223, 28388, 28419, 28415, 28400, 28419, 28385, 28368, 28260, 28321, 28467, 28358, 28256, 28469, 28334, 28247, 28334, 28250, 28500, 28272, 28466, 28271, 28412, 28477, 28450, 28593, 28291, 28346, 28358, 28409, 30274, 28167, 28997, 28505, 28269, 28272, 28193, 28394, 28474, 28179, 28377, 28096, 28449, 28518, 28437, 28412, 28572, 28384, 28307, 28578, 28325, 28408, 28466, 28353, 28587, 28492, 28537, 28447, 28242, 28452, 28373, 28500, 28435, 28331, 28409, 28352, 28235, 28477, 28248, 28347, 28168, 28359, 28336, 28319, 28399, 28562, 28170, 28272, 28303, 28466, 28419, 28346, 28317, 28338, 28161, 28311, 28235, 28414, 28299, 28352, 28469, 28275, 28121, 28328, 28408, 28447, 28292, 28430, 28337, 28225, 32683, 28056, 28310, 28439, 28496, 28281, 28250, 28372, 28460, 28239, 28235, 28285, 28373, 28304, 28215, 28475, 28397, 28287, 28306, 28541, 28392, 28128, 29664, 28216, 28405, 28273, 28352, 28357, 28167, 28427, 28321, 28605, 28331, 28221, 28467, 28259, 28424, 28278, 28562, 28388, 28507, 28576, 28459, 29182, 28162, 28309