{"AcquisitionMatrixPE": 96, "AcquisitionNumber": 1, "AcquisitionTime": "07:56:47.277500", "BaseResolution": 96, "BodyPartExamined": "BRAIN", "ConsistencyInfo": "N4_VD11D_LATEST_20110129", "ConversionSoftware": "dcm2niix", "ConversionSoftwareVersion": "v1.0.20210317", "DeviceSerialNumber": "45239", "DwellTime": 9.2e-06, "EchoNumber": 2, "EchoTime": 0.00738, "EchoTime1": 0.00492, "EchoTime2": 0.00738, "FlipAngle": 50, "ImageOrientationPatientDICOM": [0.999989, 0.00407673, -0.00216763, -0.00461718, 0.882938, -0.469467], "ImageType": ["ORIGINAL", "PRIMARY", "P", "ND", "PHASE"], "ImagingFrequency": 123.193, "InPlanePhaseEncodingDirectionDICOM": "COL", "InstitutionAddress": "E 24th St. 100,Austin,Southmiddle,US,78712", "InstitutionName": "Univ of Texas at Austin", "InstitutionalDepartmentName": "IRC", "MRAcquisitionType": "2D", "MagneticFieldStrength": 3, "Manufacturer": "Siemens", "ManufacturersModelName": "Skyra", "Modality": "MR", "PartialFourier": 1, "PatientPosition": "HFS", "PercentPhaseFOV": 100, "PercentSampling": 100, "PhaseEncodingDirection": "j-", "PhaseEncodingSteps": 96, "PhaseResolution": 1, "PixelBandwidth": 565, "ProcedureStepDescription": "Poldrack2^self-scanning", "ProtocolName": "gre_field_mapping", "PulseSequenceDetails": "%SiemensSeq%\\gre_field_mapping", "ReceiveCoilActiveElements": "HEA;HEP", "ReceiveCoilName": "Head_32", "ReconMatrixPE": 96, "RepetitionTime": 0.731, "SAR": 0.105854, "ScanningSequence": "GR", "SequenceName": "*fm2d2r", "SequenceVariant": "SP", "SeriesDescription": "gre_field_mapping", "SeriesNumber": 11, "ShimSetting": [-2772, 8050, -15454, 218, -182, 155, 152, -54], "SliceThickness": 2, "SliceTiming": [0.36719, 0, 0.375, 0.00781, 0.38281, 0.01562, 0.39844, 0.03125, 0.40625, 0.03906, 0.41406, 0.05469, 0.42969, 0.0625, 0.4375, 0.07031, 0.44531, 0.08594, 0.46094, 0.09375, 0.46875, 0.10938, 0.48438, 0.11719, 0.49219, 0.125, 0.5, 0.13281, 0.51562, 0.14844, 0.52344, 0.15625, 0.53906, 0.17188, 0.54688, 0.17969, 0.55469, 0.1875, 0.5625, 0.20312, 0.57812, 0.21094, 0.58594, 0.22656, 0.60156, 0.23438, 0.60938, 0.24219, 0.61719, 0.25781, 0.63281, 0.26562, 0.64062, 0.27344, 0.65625, 0.28906, 0.66406, 0.29688, 0.67188, 0.30469, 0.6875, 0.32031, 0.69531, 0.32812, 0.70312, 0.34375, 0.71875, 0.35156], "SoftwareVersions": "syngo MR D11", "SpacingBetweenSlices": 2.4, "StationName": "AWP45239", "TxRefAmp": 331.222, "dcmmeta_affine": [[-2.3958077430725098, -0.01106199063360691, 0.0, 119.90582275390625], [-0.009767160750925541, 2.115372657775879, -1.1267318725585938, -80.89209747314453], [-0.005193284247070551, 1.1247636079788208, 2.1190719604492188, -95.408447265625], [0.0, 0.0, 0.0, 1.0]], "dcmmeta_reorient_transform": [[0.0, -1.0, 0.0, 95.0], [1.0, 0.0, 0.0, 0.0], [0.0, 0.0, -1.0, 67.0], [0.0, 0.0, 0.0, 1.0]], "dcmmeta_shape": [96, 96, 68], "dcmmeta_slice_dim": 2, "dcmmeta_version": 0.6, "global": {"const": {"AcquisitionMatrix": [96, 0, 0, 96], "AcquisitionNumber": 1, "AngioFlag": "N", "BitsAllocated": 16, "BitsStored": 12, "BodyPartExamined": "BRAIN", "Columns": 96, "EchoNumbers": 2, "EchoTime": 7.38, "EchoTrainLength": 0, "FlipAngle": 50.0, "HighBit": 11, "ImageOrientationPatient": [0.99998934077298, 0.00407672824875, -0.0021676317068, -0.0046171788389, 0.8829381704476, -0.4694665790301], "ImageType": ["ORIGINAL", "PRIMARY", "P", "ND"], "ImagedNucleus": "1H", "ImagingFrequency": 123.19333, "InPlanePhaseEncodingDirection": "COL", "MRAcquisitionType": "2D", "MagneticFieldStrength": 3.0, "Manufacturer": "SIEMENS", "ManufacturerModelName": "Skyra", "Modality": "MR", "NumberOfAverages": 1.0, "NumberOfPhaseEncodingSteps": 96, "PercentPhaseFieldOfView": 100.0, "PercentSampling": 100.0, "PerformedProcedureStepStartTime": "073233.796000", "PhotometricInterpretation": "MONOCHROME2", "PixelBandwidth": 565.0, "PixelRepresentation": 0, "PixelSpacing": [2.3958332538605, 2.3958332538605], "ProtocolName": "gre_field_mapping", "RepetitionTime": 731.0, "RescaleIntercept": -4096.0, "RescaleSlope": 2.0, "RescaleType": "US", "Rows": 96, "SAR": 0.10585412467458, "SamplesPerPixel": 1, "ScanningSequence": "GR", "SequenceName": "*fm2d2r", "SequenceVariant": "SP", "SeriesDescription": "gre_field_mapping", "SeriesNumber": 11, "SeriesTime": "075908.906000", "SliceThickness": 2.0, "SoftwareVersions": "syngo MR D11", "SpacingBetweenSlices": 2.4, "SpecificCharacterSet": "ISO_IR 100", "StudyID": "1", "StudyTime": "073233.750000", "TransmitCoilName": "Body", "VariableFlipAngleFlag": "N", "WindowCenterWidthExplanation": "Algo1", "dBdt": 0.0}, "slices": {"AcquisitionTime": ["075647.277500", "075646.912500", "075647.287500", "075646.922500", "075647.297500", "075646.932500", "075647.310000", "075646.942500", "075647.320000", "075646.955000", "075647.330000", "075646.965000", "075647.342500", "075646.975000", "075647.352500", "075646.987500", "075647.362500", "075646.997500", "075647.372500", "075647.007500", "075647.385000", "075647.020000", "075647.395000", "075647.030000", "075647.405000", "075647.040000", "075647.417500", "075647.050000", "075647.427500", "075647.062500", "075647.437500", "075647.072500", "075647.450000", "075647.082500", "075647.460000", "075647.095000", "075647.470000", "075647.105000", "075647.480000", "075647.115000", "075647.492500", "075647.127500", "075647.502500", "075647.137500", "075647.512500", "075647.147500", "075647.525000", "075647.157500", "075647.535000", "075647.170000", "075647.545000", "075647.180000", "075647.557500", "075647.190000", "075647.567500", "075647.202500", "075647.577500", "075647.212500", "075647.587500", "075647.222500", "075647.600000", "075647.235000", "075647.610000", "075647.245000", "075647.620000", "075647.255000", "075647.632500", "075647.265000"], "ContentTime": ["075908.984000", "075908.906000", "075908.984000", "075908.906000", "075908.984000", "075908.906000", "075908.984000", "075908.906000", "075908.984000", "075908.921000", "075909.000000", "075908.921000", "075909.000000", "075908.921000", "075909.000000", "075908.921000", "075909.000000", "075908.921000", "075909.000000", "075908.921000", "075909.000000", "075908.921000", "075909.000000", "075908.937000", "075909.000000", "075908.937000", "075909.015000", "075908.937000", "075909.015000", "075908.937000", "075909.015000", "075908.937000", "075909.015000", "075908.953000", "075909.015000", "075908.953000", "075909.031000", "075908.953000", "075909.031000", "075908.953000", "075909.031000", "075908.953000", "075909.031000", "075908.953000", "075909.031000", "075908.953000", "075909.031000", "075908.968000", "075909.031000", "075908.968000", "075909.031000", "075908.968000", "075909.031000", "075908.968000", "075909.046000", "075908.968000", "075909.046000", "075908.968000", "075909.046000", "075908.968000", "075909.046000", "075908.984000", "075909.046000", "075908.984000", "075909.046000", "075908.984000", "075909.046000", "075908.984000"], "CsaImage.GSWDDataType": ["predicted", "predicted", "predicted", "predicted", "predicted", "predicted", "predicted", "predicted", "predicted", "predicted", "predicted", "predicted", "predicted", "predicted", "predicted", "predicted", "measured", "predicted", "measured", "predicted", "measured", "predicted", "measured", "predicted", "measured", "predicted", "measured", "predicted", "measured", "predicted", "measured", "predicted", "measured", "predicted", "measured", "predicted", "measured", "predicted", "measured", "predicted", "measured", "predicted", "measured", "predicted", "measured", "predicted", "measured", "predicted", "measured", "predicted", "measured", "predicted", "measured", "predicted", "measured", "predicted", "measured", "predicted", "measured", "predicted", "measured", "predicted", "measured", "predicted", "measured", "predicted", "measured", "predicted"], "CsaImage.ICE_Dims": ["X_2_1_1_1_1_1_35_1_1_1_1_28", "X_2_1_1_1_1_1_1_1_1_2_1_28", "X_2_1_1_1_1_1_36_1_1_3_1_28", "X_2_1_1_1_1_1_2_1_1_4_1_28", "X_2_1_1_1_1_1_37_1_1_5_1_28", "X_2_1_1_1_1_1_3_1_1_6_1_28", "X_2_1_1_1_1_1_38_1_1_7_1_28", "X_2_1_1_1_1_1_4_1_1_8_1_28", "X_2_1_1_1_1_1_39_1_1_9_1_28", "X_2_1_1_1_1_1_5_1_1_10_1_28", "X_2_1_1_1_1_1_40_1_1_11_1_28", "X_2_1_1_1_1_1_6_1_1_12_1_28", "X_2_1_1_1_1_1_41_1_1_13_1_28", "X_2_1_1_1_1_1_7_1_1_14_1_28", "X_2_1_1_1_1_1_42_1_1_15_1_28", "X_2_1_1_1_1_1_8_1_1_16_1_28", "X_2_1_1_1_1_1_43_1_1_17_1_28", "X_2_1_1_1_1_1_9_1_1_18_1_28", "X_2_1_1_1_1_1_44_1_1_19_1_28", "X_2_1_1_1_1_1_10_1_1_20_1_28", "X_2_1_1_1_1_1_45_1_1_21_1_28", "X_2_1_1_1_1_1_11_1_1_22_1_28", "X_2_1_1_1_1_1_46_1_1_23_1_28", "X_2_1_1_1_1_1_12_1_1_24_1_28", "X_2_1_1_1_1_1_47_1_1_25_1_28", "X_2_1_1_1_1_1_13_1_1_26_1_28", "X_2_1_1_1_1_1_48_1_1_27_1_28", "X_2_1_1_1_1_1_14_1_1_28_1_28", "X_2_1_1_1_1_1_49_1_1_29_1_28", "X_2_1_1_1_1_1_15_1_1_30_1_28", "X_2_1_1_1_1_1_50_1_1_31_1_28", "X_2_1_1_1_1_1_16_1_1_32_1_28", "X_2_1_1_1_1_1_51_1_1_33_1_28", "X_2_1_1_1_1_1_17_1_1_34_1_28", "X_2_1_1_1_1_1_52_1_1_35_1_28", "X_2_1_1_1_1_1_18_1_1_36_1_28", "X_2_1_1_1_1_1_53_1_1_37_1_28", "X_2_1_1_1_1_1_19_1_1_38_1_28", "X_2_1_1_1_1_1_54_1_1_39_1_28", "X_2_1_1_1_1_1_20_1_1_40_1_28", "X_2_1_1_1_1_1_55_1_1_41_1_28", "X_2_1_1_1_1_1_21_1_1_42_1_28", "X_2_1_1_1_1_1_56_1_1_43_1_28", "X_2_1_1_1_1_1_22_1_1_44_1_28", "X_2_1_1_1_1_1_57_1_1_45_1_28", "X_2_1_1_1_1_1_23_1_1_46_1_28", "X_2_1_1_1_1_1_58_1_1_47_1_28", "X_2_1_1_1_1_1_24_1_1_48_1_28", "X_2_1_1_1_1_1_59_1_1_49_1_28", "X_2_1_1_1_1_1_25_1_1_50_1_28", "X_2_1_1_1_1_1_60_1_1_51_1_28", "X_2_1_1_1_1_1_26_1_1_52_1_28", "X_2_1_1_1_1_1_61_1_1_53_1_28", "X_2_1_1_1_1_1_27_1_1_54_1_28", "X_2_1_1_1_1_1_62_1_1_55_1_28", "X_2_1_1_1_1_1_28_1_1_56_1_28", "X_2_1_1_1_1_1_63_1_1_57_1_28", "X_2_1_1_1_1_1_29_1_1_58_1_28", "X_2_1_1_1_1_1_64_1_1_59_1_28", "X_2_1_1_1_1_1_30_1_1_60_1_28", "X_2_1_1_1_1_1_65_1_1_61_1_28", "X_2_1_1_1_1_1_31_1_1_62_1_28", "X_2_1_1_1_1_1_66_1_1_63_1_28", "X_2_1_1_1_1_1_32_1_1_64_1_28", "X_2_1_1_1_1_1_67_1_1_65_1_28", "X_2_1_1_1_1_1_33_1_1_66_1_28", "X_2_1_1_1_1_1_68_1_1_67_1_28", "X_2_1_1_1_1_1_34_1_1_68_1_28"], "CsaImage.ProtocolSliceNumber": [0, 1, 2, 3, 4, 5, 6, 7, 8, 9, 10, 11, 12, 13, 14, 15, 16, 17, 18, 19, 20, 21, 22, 23, 24, 25, 26, 27, 28, 29, 30, 31, 32, 33, 34, 35, 36, 37, 38, 39, 40, 41, 42, 43, 44, 45, 46, 47, 48, 49, 50, 51, 52, 53, 54, 55, 56, 57, 58, 59, 60, 61, 62, 63, 64, 65, 66, 67], "CsaImage.RFSWDDataType": ["predicted", "predicted", "predicted", "predicted", "predicted", "predicted", "predicted", "predicted", "predicted", "predicted", "predicted", "predicted", "predicted", "predicted", "measured", "predicted", "measured", "predicted", "measured", "predicted", "measured", "predicted", "measured", "predicted", "measured", "predicted", "measured", "predicted", "measured", "predicted", "measured", "predicted", "measured", "predicted", "measured", "predicted", "measured", "predicted", "measured", "predicted", "measured", "predicted", "measured", "predicted", "measured", "predicted", "measured", "predicted", "measured", "predicted", "measured", "predicted", "measured", "predicted", "measured", "predicted", "measured", "predicted", "measured", "predicted", "measured", "predicted", "measured", "predicted", "measured", "predicted", "measured", "predicted"], "CsaImage.SlicePosition_PCS": [[-118.85493605, -120.06829444, 11.44394898], [-118.85493605, -118.94156257, 13.56302475], [-118.85493605, -117.81483069, 15.68209671], [-118.85493605, -116.68809882, 17.80117249], [-118.85493605, -115.56136695, 19.92024445], [-118.85493605, -114.43463508, 22.03932022], [-118.85493605, -113.30790416, 24.15839409], [-118.85493605, -112.18117228, 26.27746796], [-118.85493605, -111.05444041, 28.39654373], [-118.85493605, -109.92770854, 30.5156176], [-118.85493605, -108.80097667, 32.63469147], [-118.85493605, -107.67424479, 34.75376534], [-118.85493605, -106.5475134, 36.8728392], [-118.85493605, -105.42078153, 38.99191403], [-118.85493605, -104.29404965, 41.11098885], [-118.85493605, -103.1673179, 43.23006272], [-118.85493605, -102.04058619, 45.34913658], [-118.85493605, -100.91385439, 47.46821093], [-118.85493605, -99.78712264, 49.58728527], [-118.85493605, -98.66039101, 51.70635962], [-118.85493605, -97.53365937, 53.82543372], [-118.85493605, -96.4069275, 55.94450795], [-118.85493605, -95.28019563, 58.06358217], [-118.85493605, -94.15346375, 60.18265652], [-118.85493605, -93.02673236, 62.30173039], [-118.85493605, -91.90000049, 64.42080521], [-118.85493605, -90.77326861, 66.53987908], [-118.85493605, -89.64653674, 68.65895294], [-118.85493605, -88.51980487, 70.77802681], [-118.85493605, -87.393073, 72.89710259], [-118.85493605, -86.26634208, 75.01617645], [-118.85493605, -85.1396102, 77.13525032], [-118.85493605, -84.01287833, 79.25432419], [-118.85493605, -82.88614646, 81.37339806], [-118.85493605, -81.75941459, 83.49247193], [-118.85493605, -80.63268271, 85.6115477], [-118.85493605, -79.50595084, 87.73061966], [-118.85493605, -78.37921897, 89.84969544], [-118.85493605, -77.2524871, 91.96877121], [-118.85493605, -76.12575522, 94.08784317], [-118.85493605, -74.99902335, 96.20691895], [-118.85493605, -73.87229148, 98.32599091], [-118.85493605, -72.74556151, 100.44506668], [-118.85493605, -71.61882964, 102.56414246], [-118.85493605, -70.49209777, 104.68321442], [-118.85493605, -69.36536399, 106.80229019], [-118.85493605, -68.23863212, 108.92136215], [-118.85493605, -67.11190024, 111.04043793], [-118.85493605, -65.98516837, 113.1595137], [-118.85493605, -64.85844031, 115.27858566], [-118.85493605, -63.73170844, 117.39766144], [-118.85493605, -62.60497657, 119.5167334], [-118.85493605, -61.4782447, 121.63580536], [-118.85493605, -60.35151282, 123.75488495], [-118.85493605, -59.22478095, 125.87395691], [-118.85493605, -58.09804908, 127.99302887], [-118.85493605, -56.97131721, 130.11210846], [-118.85493605, -55.84458533, 132.23118042], [-118.85493605, -54.71785346, 134.35025238], [-118.85493605, -53.59112159, 136.46933197], [-118.85493605, -52.46438971, 138.58840393], [-118.85493605, -51.33765784, 140.70747589], [-118.85493605, -50.21092597, 142.82654785], [-118.85493605, -49.0841941, 144.94562744], [-118.85493605, -47.95746222, 147.0646994], [-118.85493605, -46.83073035, 149.18377136], [-118.85493605, -45.70399848, 151.30285095], [-118.85493605, -44.57726661, 153.42192291]], "CsaImage.TimeAfterStart": [1.0975, 0.7325, 1.1075, 0.7425, 1.12, 0.755, 1.13, 0.765, 1.14, 0.775, 1.1525, 0.785, 1.1625, 0.7975, 1.1725, 0.8075, 1.185, 0.8175, 1.195, 0.83, 1.205, 0.84, 1.215, 0.85, 1.2275, 0.8625, 1.2375, 0.8725, 1.2475, 0.8825, 1.26, 0.8925, 1.27, 0.905, 1.28, 0.915, 1.2925, 0.925, 1.3025, 0.9375, 1.3125, 0.9475, 1.3225, 0.9575, 1.335, 0.97, 1.345, 0.98, 1.355, 0.99, 1.3675, 1.0, 1.3775, 1.0125, 1.3875, 1.0225, 1.4, 1.0325, 1.41, 1.045, 1.42, 1.055, 1.43, 1.065, 1.4425, 1.0775, 1.4525, 1.0875], "ImagePositionPatient": [[-118.8549360531, -120.06829443904, 11.443948976131], [-118.8549360531, -118.94156256648, 13.563024751277], [-118.8549360531, -117.81483069393, 15.682096711727], [-118.8549360531, -116.68809882137, 17.801172486873], [-118.8549360531, -115.56136694881, 19.920244447322], [-118.8549360531, -114.43463507625, 22.039320222469], [-118.8549360531, -113.30790415737, 24.158394090267], [-118.8549360531, -112.18117228481, 26.277467958064], [-118.8549360531, -111.05444041225, 28.396543733211], [-118.8549360531, -109.92770853969, 30.515617601009], [-118.8549360531, -108.80097666713, 32.634691468807], [-118.8549360531, -107.67424479457, 34.753765336604], [-118.8549360531, -106.54751339885, 36.872839204402], [-118.8549360531, -105.42078152629, 38.991914025874], [-118.8549360531, -104.29404965373, 41.110988847347], [-118.8549360531, -103.16731790039, 43.230062715144], [-118.8549360531, -102.04058618801, 45.349136582942], [-118.8549360531, -100.91385439369, 47.468210927577], [-118.8549360531, -99.787122640337, 49.587285272212], [-118.8549360531, -98.660391006197, 51.706359616847], [-118.8549360531, -97.533659372057, 53.825433723064], [-118.8549360531, -96.406927499499, 55.94450794849], [-118.8549360531, -95.28019562694, 58.063582173915], [-118.8549360531, -94.153463754382, 60.18265651855], [-118.8549360531, -93.02673235866, 62.301730386348], [-118.8549360531, -91.900000486102, 64.42080520782], [-118.8549360531, -90.773268613543, 66.539879075618], [-118.8549360531, -89.646536740984, 68.658952943416], [-118.8549360531, -88.519804868426, 70.778026811214], [-118.8549360531, -87.393072995867, 72.89710258636], [-118.8549360531, -86.266342076983, 75.016176454158], [-118.8549360531, -85.139610204424, 77.135250321956], [-118.8549360531, -84.012878331866, 79.254324189754], [-118.8549360531, -82.886146459307, 81.373398057552], [-118.8549360531, -81.759414586749, 83.49247192535], [-118.8549360531, -80.63268271419, 85.611547700496], [-118.8549360531, -79.505950841631, 87.730619660945], [-118.8549360531, -78.379218969073, 89.849695436092], [-118.8549360531, -77.252487096514, 91.968771211238], [-118.8549360531, -76.125755223956, 94.087843171687], [-118.8549360531, -74.999023351397, 96.206918946834], [-118.8549360531, -73.872291478838, 98.325990907283], [-118.8549360531, -72.745561513628, 100.44506668243], [-118.8549360531, -71.61882964107, 102.56414245758], [-118.8549360531, -70.492097768511, 104.68321441803], [-118.8549360531, -69.365363988604, 106.80229019317], [-118.8549360531, -68.238632116045, 108.92136215362], [-118.8549360531, -67.111900243487, 111.04043792877], [-118.8549360531, -65.985168370928, 113.15951370391], [-118.8549360531, -64.858440313067, 115.27858566436], [-118.8549360531, -63.731708440508, 117.39766143951], [-118.8549360531, -62.60497656795, 119.51673339996], [-118.8549360531, -61.478244695391, 121.63580536041], [-118.8549360531, -60.351512822833, 123.75488495025], [-118.8549360531, -59.224780950274, 125.8739569107], [-118.8549360531, -58.098049077715, 127.99302887115], [-118.8549360531, -56.971317205157, 130.11210846099], [-118.8549360531, -55.844585332598, 132.23118042144], [-118.8549360531, -54.71785346004, 134.35025238189], [-118.8549360531, -53.591121587481, 136.46933197174], [-118.8549360531, -52.464389714922, 138.58840393219], [-118.8549360531, -51.337657842364, 140.70747589263], [-118.8549360531, -50.210925969805, 142.82654785308], [-118.8549360531, -49.084194097247, 144.94562744293], [-118.8549360531, -47.957462224688, 147.06469940338], [-118.8549360531, -46.830730352129, 149.18377136383], [-118.8549360531, -45.703998479571, 151.30285095367], [-118.8549360531, -44.577266607012, 153.42192291412]], "InstanceCreationTime": ["075908.984000", "075908.906000", "075908.984000", "075908.906000", "075908.984000", "075908.906000", "075908.984000", "075908.906000", "075908.984000", "075908.921000", "075909.000000", "075908.921000", "075909.000000", "075908.921000", "075909.000000", "075908.921000", "075909.000000", "075908.921000", "075909.000000", "075908.921000", "075909.000000", "075908.921000", "075909.000000", "075908.937000", "075909.000000", "075908.937000", "075909.015000", "075908.937000", "075909.015000", "075908.937000", "075909.015000", "075908.937000", "075909.015000", "075908.953000", "075909.015000", "075908.953000", "075909.031000", "075908.953000", "075909.031000", "075908.953000", "075909.031000", "075908.953000", "075909.031000", "075908.953000", "075909.031000", "075908.953000", "075909.031000", "075908.968000", "075909.031000", "075908.968000", "075909.031000", "075908.968000", "075909.031000", "075908.968000", "075909.046000", "075908.968000", "075909.046000", "075908.968000", "075909.046000", "075908.968000", "075909.046000", "075908.984000", "075909.046000", "075908.984000", "075909.046000", "075908.984000", "075909.046000", "075908.984000"], "InstanceNumber": [1, 2, 3, 4, 5, 6, 7, 8, 9, 10, 11, 12, 13, 14, 15, 16, 17, 18, 19, 20, 21, 22, 23, 24, 25, 26, 27, 28, 29, 30, 31, 32, 33, 34, 35, 36, 37, 38, 39, 40, 41, 42, 43, 44, 45, 46, 47, 48, 49, 50, 51, 52, 53, 54, 55, 56, 57, 58, 59, 60, 61, 62, 63, 64, 65, 66, 67, 68], "LargestImagePixelValue": [4094, 4093, 4094, 4094, 4093, 4093, 4092, 4094, 4094, 4094, 4094, 4093, 4094, 4093, 4094, 4093, 4094, 4094, 4091, 4092, 4093, 4093, 4092, 4093, 4094, 4094, 4093, 4094, 4091, 4090, 4086, 4094, 4094, 4094, 4093, 4094, 4094, 4089, 4090, 4094, 4094, 4091, 4093, 4094, 4094, 4091, 4094, 4085, 4092, 4091, 4094, 4094, 4093, 4094, 4093, 4093, 4093, 4091, 4093, 4094, 4093, 4094, 4094, 4092, 4093, 4090, 4094, 4093], "SliceLocation": [-46.264244864573, -43.864243436771, -41.464245377147, -39.064243949345, -36.664245889721, -34.264244461919, -31.864245165929, -29.464245422215, -27.064243994413, -24.6642442507, -22.264244506987, -19.864244763274, -17.464245243422, -15.064244657665, -12.664244071907, -10.26424438416, -7.8642447156499, -5.4642445876418, -3.0642444788718, -0.6642444260672, 1.7357554162263, 4.135755475706, 6.5357555351858, 8.9357556999212, 11.335755219773, 13.73575580553, 16.135755549244, 18.535755292957, 20.93575503667, 23.335756464472, 25.735755760462, 28.135755504175, 30.535755247888, 32.935754991601, 35.335754735314, 37.735756163116, 40.135754222741, 42.535755650543, 44.935757078345, 47.335755137969, 49.735756565771, 52.135754625395, 54.535755157751, 56.935756585553, 59.335754645177, 61.735756968425, 64.13575502805, 66.535756455852, 68.935757883654, 71.335754152386, 73.735755580188, 76.135753639812, 78.535751699437, 80.935756495416, 83.335754555041, 85.735752614665, 88.135757410645, 90.535755470269, 92.935753529893, 95.335758325873, 97.735756385497, 100.13575444512, 102.53575250475, 104.93575730073, 107.33575536035, 109.73575341997, 112.13575821595, 114.53575627558], "SmallestImagePixelValue": [0, 0, 0, 0, 3, 0, 0, 0, 0, 0, 0, 0, 3, 0, 0, 2, 7, 1, 2, 2, 0, 3, 0, 1, 0, 2, 5, 0, 0, 0, 1, 2, 2, 2, 1, 3, 4, 2, 6, 2, 3, 1, 1, 1, 0, 3, 5, 0, 4, 0, 1, 4, 0, 0, 1, 2, 0, 0, 0, 0, 1, 0, 2, 1, 0, 0, 0, 0], "WindowCenter": [-132.0, -174.0, -202.0, -190.0, -240.0, -322.0, -326.0, -590.0, -612.0, -552.0, -462.0, -516.0, -532.0, -536.0, -514.0, -478.0, -446.0, -468.0, -478.0, -452.0, -426.0, -382.0, -354.0, -358.0, -370.0, -354.0, -340.0, -320.0, -282.0, -250.0, -246.0, -244.0, -284.0, -258.0, -202.0, -144.0, -116.0, -130.0, -128.0, -122.0, -114.0, -102.0, -104.0, -116.0, -136.0, -186.0, -152.0, -152.0, -176.0, -202.0, -178.0, -196.0, -208.0, -250.0, -232.0, -290.0, -286.0, -302.0, -296.0, -302.0, -336.0, -350.0, -384.0, -388.0, -414.0, -472.0, -458.0, -448.0], "WindowWidth": [6178.0, 6156.0, 6090.0, 6244.0, 6280.0, 6128.0, 5950.0, 4980.0, 4930.0, 4908.0, 4910.0, 4882.0, 4852.0, 4796.0, 4712.0, 4654.0, 4604.0, 4550.0, 4534.0, 4468.0, 4408.0, 4358.0, 4316.0, 4266.0, 4294.0, 4274.0, 4176.0, 4102.0, 4058.0, 4030.0, 3988.0, 4010.0, 4010.0, 4002.0, 4036.0, 4058.0, 4106.0, 4128.0, 4144.0, 4184.0, 4182.0, 4192.0, 4214.0, 4208.0, 4222.0, 4228.0, 4228.0, 4244.0, 4242.0, 4274.0, 4308.0, 4286.0, 4294.0, 4304.0, 4368.0, 4398.0, 4442.0, 4466.0, 4510.0, 4540.0, 4632.0, 4722.0, 4736.0, 4848.0, 4860.0, 4916.0, 4922.0, 4996.0]}}}