{
    "AcquisitionMatrixPE": 96,
    "AcquisitionNumber": 1,
    "AcquisitionTime": "07:29:53.712500",
    "BandwidthPerPixelPhaseEncode": 33.602,
    "BaseResolution": 96,
    "BodyPartExamined": "BRAIN",
    "ConsistencyInfo": "N4_VD11D_LATEST_20110129",
    "ConversionSoftware": "dcm2niix",
    "ConversionSoftwareVersion": "v1.0.20210317",
    "DerivedVendorReportedEchoSpacing": 0.000620003,
    "DeviceSerialNumber": "45239",
    "DwellTime": 2.6e-06,
    "EchoTime": 0.03,
    "EchoTrainLength": 48,
    "EffectiveEchoSpacing": 0.000310001,
    "FlipAngle": 63,
    "ImageComments": "Unaliased MB4/PE3",
    "ImageOrientationPatientDICOM": [
        0.999965,
        -0.00741582,
        0.00395969,
        0.00840675,
        0.882096,
        -0.470995
    ],
    "ImageType": [
        "ORIGINAL",
        "PRIMARY",
        "M",
        "ND",
        "NORM",
        "MOSAIC"
    ],
    "ImagingFrequency": 123.193,
    "InPlanePhaseEncodingDirectionDICOM": "COL",
    "InstitutionAddress": "E 24th St. 100,Austin,Southmiddle,US,78712",
    "InstitutionName": "Univ of Texas at Austin",
    "InstitutionalDepartmentName": "IRC",
    "MRAcquisitionType": "2D",
    "MagneticFieldStrength": 3,
    "Manufacturer": "Siemens",
    "ManufacturersModelName": "Skyra",
    "Modality": "MR",
    "MultibandAccelerationFactor": 4,
    "ParallelReductionFactorInPlane": 2,
    "PartialFourier": 1,
    "PatientPosition": "HFS",
    "PercentPhaseFOV": 100,
    "PercentSampling": 100,
    "PhaseEncodingDirection": "j-",
    "PhaseEncodingSteps": 96,
    "PhaseResolution": 1,
    "PixelBandwidth": 2005,
    "ProcedureStepDescription": "Poldrack2^self-scanning",
    "ProtocolName": "Resting State fMRI MBEPI_matrix96_BW2004",
    "PulseSequenceDetails": "%CustomerSeq%\\cmrr_mbep2d_bold",
    "ReceiveCoilActiveElements": "HEA;HEP",
    "ReceiveCoilName": "Head_32",
    "ReconMatrixPE": 96,
    "RefLinesPE": 94,
    "RepetitionTime": 1.16,
    "SAR": 0.0964945,
    "ScanOptions": "FS",
    "ScanningSequence": "EP",
    "SequenceName": "epfid2d1_96",
    "SequenceVariant": "SK",
    "SeriesDescription": "Resting State fMRI MBEPI_matrix96_BW2004",
    "SeriesNumber": 8,
    "ShimSetting": [
        -2791,
        8043,
        -15426,
        82,
        -249,
        168,
        225,
        -42
    ],
    "SliceThickness": 2,
    "SliceTiming": [
        0,
        0.4975,
        0.9975,
        0.355,
        0.855,
        0.2125,
        0.7125,
        0.07,
        0.57,
        1.0675,
        0.4275,
        0.925,
        0.285,
        0.7825,
        0.1425,
        0.64,
        0,
        0.4975,
        0.9975,
        0.355,
        0.855,
        0.2125,
        0.7125,
        0.07,
        0.57,
        1.0675,
        0.4275,
        0.925,
        0.285,
        0.7825,
        0.1425,
        0.64,
        0,
        0.4975,
        0.9975,
        0.355,
        0.855,
        0.2125,
        0.7125,
        0.07,
        0.57,
        1.0675,
        0.4275,
        0.925,
        0.285,
        0.7825,
        0.1425,
        0.64,
        0,
        0.4975,
        0.9975,
        0.355,
        0.855,
        0.2125,
        0.7125,
        0.07,
        0.57,
        1.0675,
        0.4275,
        0.925,
        0.285,
        0.7825,
        0.1425,
        0.64
    ],
    "SoftwareVersions": "syngo MR D11",
    "SpacingBetweenSlices": 2.4,
    "StationName": "AWP45239",
    "TaskName": "Resting fmri",
    "TotalReadoutTime": 0.0294501,
    "TxRefAmp": 333.886,
    "WipMemBlock": "54953cde-4a5a-4cfc-ace1-fe9546f400e0||Sequence: VD11D r206; Feb 13 2013 18:52:04 by eja",
    "dcmmeta_affine": [
        [
            -2.3957486152648926,
            0.020141182467341423,
            1.3421045608197346e-08,
            119.3736801147461
        ],
        [
            0.01776707172393799,
            2.113354206085205,
            -1.1304285526275635,
            -86.79656982421875
        ],
        [
            0.009486747905611992,
            1.1284260749816895,
            2.1171045303344727,
            -84.03079986572266
        ],
        [
            0.0,
            0.0,
            0.0,
            1.0
        ]
    ],
    "dcmmeta_reorient_transform": [
        [
            0.0,
            -1.0,
            0.0,
            95.0
        ],
        [
            1.0,
            0.0,
            0.0,
            0.0
        ],
        [
            0.0,
            0.0,
            1.0,
            0.0
        ],
        [
            0.0,
            0.0,
            0.0,
            1.0
        ]
    ],
    "dcmmeta_shape": [
        96,
        96,
        64,
        518
    ],
    "dcmmeta_slice_dim": 2,
    "dcmmeta_version": 0.6,
    "global": {
        "const": {
            "AcquisitionMatrix": [
                96,
                0,
                0,
                96
            ],
            "AngioFlag": "N",
            "BitsAllocated": 16,
            "BitsStored": 16,
            "BodyPartExamined": "BRAIN",
            "Columns": 768,
            "EchoNumbers": 1,
            "EchoTime": 30.0,
            "EchoTrainLength": 48,
            "FlipAngle": 63.0,
            "HighBit": 15,
            "ImageOrientationPatient": [
                0.99996466261431,
                -0.0074158215045,
                0.00395968610792,
                0.0084067545854,
                0.88209570141902,
                -0.4709952229221
            ],
            "ImagePositionPatient": [
                -933.02605821685,
                -818.08935679496,
                399.13326807144
            ],
            "ImageType": [
                "ORIGINAL",
                "PRIMARY",
                "M",
                "ND",
                "NORM",
                "MOSAIC"
            ],
            "ImagedNucleus": "1H",
            "ImagingFrequency": 123.193177,
            "InPlanePhaseEncodingDirection": "COL",
            "MRAcquisitionType": "2D",
            "MagneticFieldStrength": 3.0,
            "Manufacturer": "SIEMENS",
            "ManufacturerModelName": "Skyra",
            "Modality": "MR",
            "NumberOfAverages": 1.0,
            "NumberOfPhaseEncodingSteps": 96,
            "PercentPhaseFieldOfView": 100.0,
            "PercentSampling": 100.0,
            "PerformedProcedureStepStartTime": "070851.062000",
            "PhotometricInterpretation": "MONOCHROME2",
            "PixelBandwidth": 2005.0,
            "PixelRepresentation": 0,
            "PixelSpacing": [
                2.3958332538605,
                2.3958332538605
            ],
            "ProtocolName": "Resting State fMRI MBEPI_matrix96_BW2004",
            "RepetitionTime": 1160.0,
            "Rows": 768,
            "SAR": 0.09649452756578,
            "SamplesPerPixel": 1,
            "ScanOptions": "FS",
            "ScanningSequence": "EP",
            "SequenceName": "epfid2d1_96",
            "SequenceVariant": "SK",
            "SeriesDescription": "Resting State fMRI MBEPI_matrix96_BW2004",
            "SeriesNumber": 8,
            "SeriesTime": "073033.453000",
            "SliceLocation": -33.243608482254,
            "SliceThickness": 2.0,
            "SmallestImagePixelValue": 0,
            "SoftwareVersions": "syngo MR D11",
            "SpacingBetweenSlices": 2.4000000377021,
            "SpecificCharacterSet": "ISO_IR 100",
            "StudyID": "1",
            "StudyTime": "070851.031000",
            "TransmitCoilName": "Body",
            "VariableFlipAngleFlag": "N",
            "WindowCenterWidthExplanation": "Algo1",
            "dBdt": 0.0
        },
        "slices": {}
    },
    "time": {
        "samples": {
            "AcquisitionNumber": [
                1,
                2,
                3,
                4,
                5,
                6,
                7,
                8,
                9,
                10,
                11,
                12,
                13,
                14,
                15,
                16,
                17,
                18,
                19,
                20,
                21,
                22,
                23,
                24,
                25,
                26,
                27,
                28,
                29,
                30,
                31,
                32,
                33,
                34,
                35,
                36,
                37,
                38,
                39,
                40,
                41,
                42,
                43,
                44,
                45,
                46,
                47,
                48,
                49,
                50,
                51,
                52,
                53,
                54,
                55,
                56,
                57,
                58,
                59,
                60,
                61,
                62,
                63,
                64,
                65,
                66,
                67,
                68,
                69,
                70,
                71,
                72,
                73,
                74,
                75,
                76,
                77,
                78,
                79,
                80,
                81,
                82,
                83,
                84,
                85,
                86,
                87,
                88,
                89,
                90,
                91,
                92,
                93,
                94,
                95,
                96,
                97,
                98,
                99,
                100,
                101,
                102,
                103,
                104,
                105,
                106,
                107,
                108,
                109,
                110,
                111,
                112,
                113,
                114,
                115,
                116,
                117,
                118,
                119,
                120,
                121,
                122,
                123,
                124,
                125,
                126,
                127,
                128,
                129,
                130,
                131,
                132,
                133,
                134,
                135,
                136,
                137,
                138,
                139,
                140,
                141,
                142,
                143,
                144,
                145,
                146,
                147,
                148,
                149,
                150,
                151,
                152,
                153,
                154,
                155,
                156,
                157,
                158,
                159,
                160,
                161,
                162,
                163,
                164,
                165,
                166,
                167,
                168,
                169,
                170,
                171,
                172,
                173,
                174,
                175,
                176,
                177,
                178,
                179,
                180,
                181,
                182,
                183,
                184,
                185,
                186,
                187,
                188,
                189,
                190,
                191,
                192,
                193,
                194,
                195,
                196,
                197,
                198,
                199,
                200,
                201,
                202,
                203,
                204,
                205,
                206,
                207,
                208,
                209,
                210,
                211,
                212,
                213,
                214,
                215,
                216,
                217,
                218,
                219,
                220,
                221,
                222,
                223,
                224,
                225,
                226,
                227,
                228,
                229,
                230,
                231,
                232,
                233,
                234,
                235,
                236,
                237,
                238,
                239,
                240,
                241,
                242,
                243,
                244,
                245,
                246,
                247,
                248,
                249,
                250,
                251,
                252,
                253,
                254,
                255,
                256,
                257,
                258,
                259,
                260,
                261,
                262,
                263,
                264,
                265,
                266,
                267,
                268,
                269,
                270,
                271,
                272,
                273,
                274,
                275,
                276,
                277,
                278,
                279,
                280,
                281,
                282,
                283,
                284,
                285,
                286,
                287,
                288,
                289,
                290,
                291,
                292,
                293,
                294,
                295,
                296,
                297,
                298,
                299,
                300,
                301,
                302,
                303,
                304,
                305,
                306,
                307,
                308,
                309,
                310,
                311,
                312,
                313,
                314,
                315,
                316,
                317,
                318,
                319,
                320,
                321,
                322,
                323,
                324,
                325,
                326,
                327,
                328,
                329,
                330,
                331,
                332,
                333,
                334,
                335,
                336,
                337,
                338,
                339,
                340,
                341,
                342,
                343,
                344,
                345,
                346,
                347,
                348,
                349,
                350,
                351,
                352,
                353,
                354,
                355,
                356,
                357,
                358,
                359,
                360,
                361,
                362,
                363,
                364,
                365,
                366,
                367,
                368,
                369,
                370,
                371,
                372,
                373,
                374,
                375,
                376,
                377,
                378,
                379,
                380,
                381,
                382,
                383,
                384,
                385,
                386,
                387,
                388,
                389,
                390,
                391,
                392,
                393,
                394,
                395,
                396,
                397,
                398,
                399,
                400,
                401,
                402,
                403,
                404,
                405,
                406,
                407,
                408,
                409,
                410,
                411,
                412,
                413,
                414,
                415,
                416,
                417,
                418,
                419,
                420,
                421,
                422,
                423,
                424,
                425,
                426,
                427,
                428,
                429,
                430,
                431,
                432,
                433,
                434,
                435,
                436,
                437,
                438,
                439,
                440,
                441,
                442,
                443,
                444,
                445,
                446,
                447,
                448,
                449,
                450,
                451,
                452,
                453,
                454,
                455,
                456,
                457,
                458,
                459,
                460,
                461,
                462,
                463,
                464,
                465,
                466,
                467,
                468,
                469,
                470,
                471,
                472,
                473,
                474,
                475,
                476,
                477,
                478,
                479,
                480,
                481,
                482,
                483,
                484,
                485,
                486,
                487,
                488,
                489,
                490,
                491,
                492,
                493,
                494,
                495,
                496,
                497,
                498,
                499,
                500,
                501,
                502,
                503,
                504,
                505,
                506,
                507,
                508,
                509,
                510,
                511,
                512,
                513,
                514,
                515,
                516,
                517,
                518
            ],
            "AcquisitionTime": [
                "072953.712500",
                "073022.712500",
                "073023.872500",
                "073025.032500",
                "073026.192500",
                "073027.352500",
                "073028.512500",
                "073029.672500",
                "073030.832500",
                "073031.992500",
                "073033.152500",
                "073034.312500",
                "073035.472500",
                "073036.632500",
                "073037.792500",
                "073038.952500",
                "073040.112500",
                "073041.272500",
                "073042.432500",
                "073043.592500",
                "073044.752500",
                "073045.912500",
                "073047.072500",
                "073048.232500",
                "073049.392500",
                "073050.552500",
                "073051.712500",
                "073052.872500",
                "073054.032500",
                "073055.192500",
                "073056.352500",
                "073057.512500",
                "073058.672500",
                "073059.832500",
                "073100.992500",
                "073102.152500",
                "073103.312500",
                "073104.472500",
                "073105.632500",
                "073106.792500",
                "073107.952500",
                "073109.112500",
                "073110.272500",
                "073111.432500",
                "073112.592500",
                "073113.752500",
                "073114.912500",
                "073116.072500",
                "073117.232500",
                "073118.392500",
                "073119.552500",
                "073120.712500",
                "073121.872500",
                "073123.032500",
                "073124.192500",
                "073125.352500",
                "073126.512500",
                "073127.672500",
                "073128.832500",
                "073129.992500",
                "073131.152500",
                "073132.312500",
                "073133.472500",
                "073134.632500",
                "073135.792500",
                "073136.952500",
                "073138.112500",
                "073139.272500",
                "073140.432500",
                "073141.592500",
                "073142.752500",
                "073143.912500",
                "073145.072500",
                "073146.232500",
                "073147.392500",
                "073148.552500",
                "073149.712500",
                "073150.872500",
                "073152.032500",
                "073153.192500",
                "073154.352500",
                "073155.512500",
                "073156.672500",
                "073157.832500",
                "073158.992500",
                "073200.152500",
                "073201.312500",
                "073202.472500",
                "073203.632500",
                "073204.792500",
                "073205.952500",
                "073207.112500",
                "073208.272500",
                "073209.432500",
                "073210.592500",
                "073211.752500",
                "073212.912500",
                "073214.072500",
                "073215.232500",
                "073216.392500",
                "073217.552500",
                "073218.712500",
                "073219.872500",
                "073221.032500",
                "073222.192500",
                "073223.352500",
                "073224.512500",
                "073225.672500",
                "073226.832500",
                "073227.992500",
                "073229.152500",
                "073230.312500",
                "073231.472500",
                "073232.632500",
                "073233.792500",
                "073234.952500",
                "073236.112500",
                "073237.272500",
                "073238.432500",
                "073239.592500",
                "073240.752500",
                "073241.912500",
                "073243.072500",
                "073244.232500",
                "073245.392500",
                "073246.552500",
                "073247.712500",
                "073248.872500",
                "073250.032500",
                "073251.192500",
                "073252.352500",
                "073253.512500",
                "073254.672500",
                "073255.832500",
                "073256.992500",
                "073258.152500",
                "073259.312500",
                "073300.472500",
                "073301.632500",
                "073302.792500",
                "073303.952500",
                "073305.112500",
                "073306.272500",
                "073307.432500",
                "073308.592500",
                "073309.752500",
                "073310.912500",
                "073312.072500",
                "073313.235000",
                "073314.395000",
                "073315.555000",
                "073316.715000",
                "073317.875000",
                "073319.035000",
                "073320.195000",
                "073321.355000",
                "073322.515000",
                "073323.675000",
                "073324.835000",
                "073325.995000",
                "073327.155000",
                "073328.315000",
                "073329.475000",
                "073330.635000",
                "073331.795000",
                "073332.955000",
                "073334.115000",
                "073335.275000",
                "073336.435000",
                "073337.595000",
                "073338.755000",
                "073339.915000",
                "073341.075000",
                "073342.235000",
                "073343.395000",
                "073344.555000",
                "073345.715000",
                "073346.875000",
                "073348.035000",
                "073349.195000",
                "073350.355000",
                "073351.515000",
                "073352.675000",
                "073353.835000",
                "073354.995000",
                "073356.155000",
                "073357.315000",
                "073358.475000",
                "073359.635000",
                "073400.795000",
                "073401.955000",
                "073403.115000",
                "073404.275000",
                "073405.435000",
                "073406.595000",
                "073407.755000",
                "073408.915000",
                "073410.075000",
                "073411.235000",
                "073412.395000",
                "073413.555000",
                "073414.715000",
                "073415.875000",
                "073417.035000",
                "073418.195000",
                "073419.355000",
                "073420.515000",
                "073421.675000",
                "073422.835000",
                "073423.995000",
                "073425.155000",
                "073426.315000",
                "073427.475000",
                "073428.635000",
                "073429.795000",
                "073430.955000",
                "073432.115000",
                "073433.275000",
                "073434.435000",
                "073435.595000",
                "073436.755000",
                "073437.915000",
                "073439.075000",
                "073440.235000",
                "073441.395000",
                "073442.555000",
                "073443.715000",
                "073444.875000",
                "073446.035000",
                "073447.195000",
                "073448.355000",
                "073449.515000",
                "073450.675000",
                "073451.835000",
                "073452.995000",
                "073454.155000",
                "073455.315000",
                "073456.475000",
                "073457.635000",
                "073458.795000",
                "073459.955000",
                "073501.115000",
                "073502.275000",
                "073503.435000",
                "073504.595000",
                "073505.755000",
                "073506.915000",
                "073508.075000",
                "073509.235000",
                "073510.395000",
                "073511.555000",
                "073512.715000",
                "073513.875000",
                "073515.035000",
                "073516.195000",
                "073517.355000",
                "073518.515000",
                "073519.675000",
                "073520.835000",
                "073521.995000",
                "073523.155000",
                "073524.315000",
                "073525.475000",
                "073526.635000",
                "073527.795000",
                "073528.955000",
                "073530.115000",
                "073531.275000",
                "073532.435000",
                "073533.595000",
                "073534.755000",
                "073535.915000",
                "073537.075000",
                "073538.235000",
                "073539.395000",
                "073540.555000",
                "073541.715000",
                "073542.875000",
                "073544.035000",
                "073545.195000",
                "073546.355000",
                "073547.515000",
                "073548.675000",
                "073549.835000",
                "073550.995000",
                "073552.155000",
                "073553.315000",
                "073554.475000",
                "073555.635000",
                "073556.795000",
                "073557.955000",
                "073559.115000",
                "073600.275000",
                "073601.435000",
                "073602.595000",
                "073603.755000",
                "073604.915000",
                "073606.075000",
                "073607.235000",
                "073608.395000",
                "073609.555000",
                "073610.715000",
                "073611.875000",
                "073613.035000",
                "073614.195000",
                "073615.355000",
                "073616.515000",
                "073617.675000",
                "073618.835000",
                "073619.995000",
                "073621.155000",
                "073622.315000",
                "073623.475000",
                "073624.635000",
                "073625.795000",
                "073626.955000",
                "073628.115000",
                "073629.275000",
                "073630.435000",
                "073631.595000",
                "073632.755000",
                "073633.915000",
                "073635.075000",
                "073636.235000",
                "073637.395000",
                "073638.555000",
                "073639.715000",
                "073640.875000",
                "073642.035000",
                "073643.195000",
                "073644.355000",
                "073645.515000",
                "073646.675000",
                "073647.835000",
                "073648.995000",
                "073650.155000",
                "073651.315000",
                "073652.475000",
                "073653.635000",
                "073654.795000",
                "073655.955000",
                "073657.115000",
                "073658.275000",
                "073659.435000",
                "073700.595000",
                "073701.755000",
