{
    "AcquisitionMatrixPE": 96,
    "AcquisitionNumber": 1,
    "AcquisitionTime": "07:36:14.827500",
    "BandwidthPerPixelPhaseEncode": 33.602,
    "BaseResolution": 96,
    "BodyPartExamined": "BRAIN",
    "ConsistencyInfo": "N4_VD11D_LATEST_20110129",
    "ConversionSoftware": "dcm2niix",
    "ConversionSoftwareVersion": "v1.0.20210317",
    "DerivedVendorReportedEchoSpacing": 0.000620003,
    "DeviceSerialNumber": "45239",
    "DwellTime": 2.6e-06,
    "EchoTime": 0.03,
    "EchoTrainLength": 48,
    "EffectiveEchoSpacing": 0.000310001,
    "FlipAngle": 63,
    "ImageComments": "Unaliased MB4/PE3",
    "ImageOrientationPatientDICOM": [
        1,
        -0.000881682,
        0.000474708,
        0.00100135,
        0.880477,
        -0.474088
    ],
    "ImageType": [
        "ORIGINAL",
        "PRIMARY",
        "M",
        "ND",
        "NORM",
        "MOSAIC"
    ],
    "ImagingFrequency": 123.193,
    "InPlanePhaseEncodingDirectionDICOM": "COL",
    "InstitutionAddress": "E 24th St. 100,Austin,Southmiddle,US,78712",
    "InstitutionName": "Univ of Texas at Austin",
    "InstitutionalDepartmentName": "IRC",
    "MRAcquisitionType": "2D",
    "MagneticFieldStrength": 3,
    "Manufacturer": "Siemens",
    "ManufacturersModelName": "Skyra",
    "Modality": "MR",
    "MultibandAccelerationFactor": 4,
    "ParallelReductionFactorInPlane": 2,
    "PartialFourier": 1,
    "PatientPosition": "HFS",
    "PercentPhaseFOV": 100,
    "PercentSampling": 100,
    "PhaseEncodingDirection": "j-",
    "PhaseEncodingSteps": 96,
    "PhaseResolution": 1,
    "PixelBandwidth": 2005,
    "ProcedureStepDescription": "Poldrack2^self-scanning",
    "ProtocolName": "Resting State fMRI MBEPI_matrix96_BW2004",
    "PulseSequenceDetails": "%CustomerSeq%\\cmrr_mbep2d_bold",
    "ReceiveCoilActiveElements": "HEA;HEP",
    "ReceiveCoilName": "Head_32",
    "ReconMatrixPE": 96,
    "RefLinesPE": 94,
    "RepetitionTime": 1.16,
    "SAR": 0.108258,
    "ScanOptions": "FS",
    "ScanningSequence": "EP",
    "SequenceName": "epfid2d1_96",
    "SequenceVariant": "SK",
    "SeriesDescription": "Resting State fMRI MBEPI_matrix96_BW2004",
    "SeriesNumber": 6,
    "ShimSetting": [
        -2794,
        8055,
        -15397,
        104,
        -236,
        141,
        237,
        -52
    ],
    "SliceThickness": 2,
    "SliceTiming": [
        0,
        0.4975,
        0.9975,
        0.355,
        0.855,
        0.2125,
        0.7125,
        0.07,
        0.57,
        1.0675,
        0.4275,
        0.925,
        0.285,
        0.7825,
        0.1425,
        0.64,
        0,
        0.4975,
        0.9975,
        0.355,
        0.855,
        0.2125,
        0.7125,
        0.07,
        0.57,
        1.0675,
        0.4275,
        0.925,
        0.285,
        0.7825,
        0.1425,
        0.64,
        0,
        0.4975,
        0.9975,
        0.355,
        0.855,
        0.2125,
        0.7125,
        0.07,
        0.57,
        1.0675,
        0.4275,
        0.925,
        0.285,
        0.7825,
        0.1425,
        0.64,
        0,
        0.4975,
        0.9975,
        0.355,
        0.855,
        0.2125,
        0.7125,
        0.07,
        0.57,
        1.0675,
        0.4275,
        0.925,
        0.285,
        0.7825,
        0.1425,
        0.64
    ],
    "SoftwareVersions": "syngo MR D11",
    "SpacingBetweenSlices": 2.4,
    "StationName": "AWP45239",
    "TaskName": "Resting fmri",
    "TotalReadoutTime": 0.0294501,
    "TxRefAmp": 348.108,
    "WipMemBlock": "b2378c20-ca11-4e81-8709-2fe70f7b5bc4||Sequence: VD11D r206; Feb 13 2013 18:52:04 by eja",
    "dcmmeta_affine": [
        [
            -2.395832061767578,
            0.0023990790359675884,
            -6.111660866281454e-08,
            117.58935546875
        ],
        [
            0.002112363697960973,
            2.10947585105896,
            -1.1378116607666016,
            -83.9050521850586
        ],
        [
            0.001137321349233389,
            1.1358357667922974,
            2.113145589828491,
            -74.34950256347656
        ],
        [
            0.0,
            0.0,
            0.0,
            1.0
        ]
    ],
    "dcmmeta_reorient_transform": [
        [
            0.0,
            -1.0,
            0.0,
            95.0
        ],
        [
            1.0,
            0.0,
            0.0,
            0.0
        ],
        [
            0.0,
            0.0,
            1.0,
            0.0
        ],
        [
            0.0,
            0.0,
            0.0,
            1.0
        ]
    ],
    "dcmmeta_shape": [
        96,
        96,
        64,
        518
    ],
    "dcmmeta_slice_dim": 2,
    "dcmmeta_version": 0.6,
    "global": {
        "const": {
            "AcquisitionMatrix": [
                96,
                0,
                0,
                96
            ],
            "AngioFlag": "N",
            "BitsAllocated": 16,
            "BitsStored": 16,
            "BodyPartExamined": "BRAIN",
            "Columns": 768,
            "EchoNumbers": 1,
            "EchoTime": 30.0,
            "EchoTrainLength": 48,
            "FlipAngle": 63.0,
            "HighBit": 15,
            "ImageOrientationPatient": [
                0.99999949864415,
                -0.0008816823037,
                0.00047470807655,
                0.00100135480324,
                0.88047691591791,
                -0.4740879642263
            ],
            "ImagePositionPatient": [
                -923.62293190963,
                -824.56929912625,
                414.81354811709
            ],
            "ImageType": [
                "ORIGINAL",
                "PRIMARY",
                "M",
                "ND",
                "NORM",
                "MOSAIC"
            ],
            "ImagedNucleus": "1H",
            "ImagingFrequency": 123.193132,
            "InPlanePhaseEncodingDirection": "COL",
            "MRAcquisitionType": "2D",
            "MagneticFieldStrength": 3.0,
            "Manufacturer": "SIEMENS",
            "ManufacturerModelName": "Skyra",
            "Modality": "MR",
            "NumberOfAverages": 1.0,
            "NumberOfPhaseEncodingSteps": 96,
            "PercentPhaseFieldOfView": 100.0,
            "PercentSampling": 100.0,
            "PerformedProcedureStepStartTime": "072932.406000",
            "PhotometricInterpretation": "MONOCHROME2",
            "PixelBandwidth": 2005.0,
            "PixelRepresentation": 0,
            "PixelSpacing": [
                2.3958332538605,
                2.3958332538605
            ],
            "ProtocolName": "Resting State fMRI MBEPI_matrix96_BW2004",
            "RepetitionTime": 1160.0,
            "Rows": 768,
            "SAR": 0.10825847373995,
            "SamplesPerPixel": 1,
            "ScanOptions": "FS",
            "ScanningSequence": "EP",
            "SequenceName": "epfid2d1_96",
            "SequenceVariant": "SK",
            "SeriesDescription": "Resting State fMRI MBEPI_matrix96_BW2004",
            "SeriesNumber": 6,
            "SeriesTime": "073653.359000",
            "SliceLocation": -25.684663233094,
            "SliceThickness": 2.0,
            "SmallestImagePixelValue": 0,
            "SoftwareVersions": "syngo MR D11",
            "SpacingBetweenSlices": 2.4000000343422,
            "SpecificCharacterSet": "ISO_IR 100",
            "StudyID": "1",
            "StudyTime": "072932.359000",
            "TransmitCoilName": "Body",
            "VariableFlipAngleFlag": "N",
            "WindowCenterWidthExplanation": "Algo1",
            "dBdt": 0.0
        },
        "slices": {}
    },
    "time": {
        "samples": {
            "AcquisitionNumber": [
                1,
                2,
                3,
                4,
                5,
                6,
                7,
                8,
                9,
                10,
                11,
                12,
                13,
                14,
                15,
                16,
                17,
                18,
                19,
                20,
                21,
                22,
                23,
                24,
                25,
                26,
                27,
                28,
                29,
                30,
                31,
                32,
                33,
                34,
                35,
                36,
                37,
                38,
                39,
                40,
                41,
                42,
                43,
                44,
                45,
                46,
                47,
                48,
                49,
                50,
                51,
                52,
                53,
                54,
                55,
                56,
                57,
                58,
                59,
                60,
                61,
                62,
                63,
                64,
                65,
                66,
                67,
                68,
                69,
                70,
                71,
                72,
                73,
                74,
                75,
                76,
                77,
                78,
                79,
                80,
                81,
                82,
                83,
                84,
                85,
                86,
                87,
                88,
                89,
                90,
                91,
                92,
                93,
                94,
                95,
                96,
                97,
                98,
                99,
                100,
                101,
                102,
                103,
                104,
                105,
                106,
                107,
                108,
                109,
                110,
                111,
                112,
                113,
                114,
                115,
                116,
                117,
                118,
                119,
                120,
                121,
                122,
                123,
                124,
                125,
                126,
                127,
                128,
                129,
                130,
                131,
                132,
                133,
                134,
                135,
                136,
                137,
                138,
                139,
                140,
                141,
                142,
                143,
                144,
                145,
                146,
                147,
                148,
                149,
                150,
                151,
                152,
                153,
                154,
                155,
                156,
                157,
                158,
                159,
                160,
                161,
                162,
                163,
                164,
                165,
                166,
                167,
                168,
                169,
                170,
                171,
                172,
                173,
                174,
                175,
                176,
                177,
                178,
                179,
                180,
                181,
                182,
                183,
                184,
                185,
                186,
                187,
                188,
                189,
                190,
                191,
                192,
                193,
                194,
                195,
                196,
                197,
                198,
                199,
                200,
                201,
                202,
                203,
                204,
                205,
                206,
                207,
                208,
                209,
                210,
                211,
                212,
                213,
                214,
                215,
                216,
                217,
                218,
                219,
                220,
                221,
                222,
                223,
                224,
                225,
                226,
                227,
                228,
                229,
                230,
                231,
                232,
                233,
                234,
                235,
                236,
                237,
                238,
                239,
                240,
                241,
                242,
                243,
                244,
                245,
                246,
                247,
                248,
                249,
                250,
                251,
                252,
                253,
                254,
                255,
                256,
                257,
                258,
                259,
                260,
                261,
                262,
                263,
                264,
                265,
                266,
                267,
                268,
                269,
                270,
                271,
                272,
                273,
                274,
                275,
                276,
                277,
                278,
                279,
                280,
                281,
                282,
                283,
                284,
                285,
                286,
                287,
                288,
                289,
                290,
                291,
                292,
                293,
                294,
                295,
                296,
                297,
                298,
                299,
                300,
                301,
                302,
                303,
                304,
                305,
                306,
                307,
                308,
                309,
                310,
                311,
                312,
                313,
                314,
                315,
                316,
                317,
                318,
                319,
                320,
                321,
                322,
                323,
                324,
                325,
                326,
                327,
                328,
                329,
                330,
                331,
                332,
                333,
                334,
                335,
                336,
                337,
                338,
                339,
                340,
                341,
                342,
                343,
                344,
                345,
                346,
                347,
                348,
                349,
                350,
                351,
                352,
                353,
                354,
                355,
                356,
                357,
                358,
                359,
                360,
                361,
                362,
                363,
                364,
                365,
                366,
                367,
                368,
                369,
                370,
                371,
                372,
                373,
                374,
                375,
                376,
                377,
                378,
                379,
                380,
                381,
                382,
                383,
                384,
                385,
                386,
                387,
                388,
                389,
                390,
                391,
                392,
                393,
                394,
                395,
                396,
                397,
                398,
                399,
                400,
                401,
                402,
                403,
                404,
                405,
                406,
                407,
                408,
                409,
                410,
                411,
                412,
                413,
                414,
                415,
                416,
                417,
                418,
                419,
                420,
                421,
                422,
                423,
                424,
                425,
                426,
                427,
                428,
                429,
                430,
                431,
                432,
                433,
                434,
                435,
                436,
                437,
                438,
                439,
                440,
                441,
                442,
                443,
                444,
                445,
                446,
                447,
                448,
                449,
                450,
                451,
                452,
                453,
                454,
                455,
                456,
                457,
                458,
                459,
                460,
                461,
                462,
                463,
                464,
                465,
                466,
                467,
                468,
                469,
                470,
                471,
                472,
                473,
                474,
                475,
                476,
                477,
                478,
                479,
                480,
                481,
                482,
                483,
                484,
                485,
                486,
                487,
                488,
                489,
                490,
                491,
                492,
                493,
                494,
                495,
                496,
                497,
                498,
                499,
                500,
                501,
                502,
                503,
                504,
                505,
                506,
                507,
                508,
                509,
                510,
                511,
                512,
                513,
                514,
                515,
                516,
                517,
                518
            ],
            "AcquisitionTime": [
                "073614.827500",
                "073643.827500",
                "073644.987500",
                "073646.147500",
                "073647.307500",
                "073648.467500",
                "073649.627500",
                "073650.787500",
                "073651.947500",
                "073653.107500",
                "073654.267500",
                "073655.427500",
                "073656.587500",
                "073657.747500",
                "073658.907500",
                "073700.067500",
                "073701.227500",
                "073702.387500",
                "073703.547500",
                "073704.707500",
                "073705.867500",
                "073707.027500",
                "073708.187500",
                "073709.347500",
                "073710.507500",
                "073711.667500",
                "073712.827500",
                "073713.987500",
                "073715.147500",
                "073716.307500",
                "073717.467500",
                "073718.627500",
                "073719.787500",
                "073720.947500",
                "073722.107500",
                "073723.267500",
                "073724.427500",
                "073725.587500",
                "073726.747500",
                "073727.907500",
                "073729.067500",
                "073730.227500",
                "073731.387500",
                "073732.547500",
                "073733.707500",
                "073734.867500",
                "073736.027500",
                "073737.187500",
                "073738.347500",
                "073739.507500",
                "073740.667500",
                "073741.827500",
                "073742.987500",
                "073744.147500",
                "073745.307500",
                "073746.467500",
                "073747.627500",
                "073748.787500",
                "073749.947500",
                "073751.107500",
                "073752.267500",
                "073753.427500",
                "073754.587500",
                "073755.747500",
                "073756.907500",
                "073758.067500",
                "073759.227500",
                "073800.387500",
                "073801.547500",
                "073802.707500",
                "073803.867500",
                "073805.027500",
                "073806.187500",
                "073807.347500",
                "073808.507500",
                "073809.667500",
                "073810.827500",
                "073811.987500",
                "073813.147500",
                "073814.307500",
                "073815.467500",
                "073816.627500",
                "073817.787500",
                "073818.947500",
                "073820.107500",
                "073821.267500",
                "073822.427500",
                "073823.587500",
                "073824.747500",
                "073825.907500",
                "073827.067500",
                "073828.227500",
                "073829.387500",
                "073830.547500",
                "073831.707500",
                "073832.867500",
                "073834.027500",
                "073835.187500",
                "073836.347500",
                "073837.507500",
                "073838.667500",
                "073839.827500",
                "073840.987500",
                "073842.147500",
                "073843.307500",
                "073844.467500",
                "073845.627500",
                "073846.787500",
                "073847.947500",
                "073849.107500",
                "073850.267500",
                "073851.427500",
                "073852.587500",
                "073853.747500",
                "073854.907500",
                "073856.067500",
                "073857.227500",
                "073858.387500",
                "073859.547500",
                "073900.707500",
                "073901.867500",
                "073903.027500",
                "073904.187500",
                "073905.347500",
                "073906.507500",
                "073907.667500",
                "073908.827500",
                "073909.987500",
                "073911.147500",
                "073912.307500",
                "073913.467500",
                "073914.630000",
                "073915.790000",
                "073916.950000",
                "073918.110000",
                "073919.270000",
                "073920.430000",
                "073921.590000",
                "073922.750000",
                "073923.910000",
                "073925.070000",
                "073926.230000",
                "073927.390000",
                "073928.550000",
                "073929.710000",
                "073930.870000",
                "073932.030000",
                "073933.190000",
                "073934.350000",
                "073935.510000",
                "073936.670000",
                "073937.830000",
                "073938.990000",
                "073940.150000",
                "073941.310000",
                "073942.470000",
                "073943.630000",
                "073944.790000",
                "073945.950000",
                "073947.110000",
                "073948.270000",
                "073949.430000",
                "073950.590000",
                "073951.750000",
                "073952.910000",
                "073954.070000",
                "073955.230000",
                "073956.390000",
                "073957.550000",
                "073958.710000",
                "073959.870000",
                "074001.030000",
                "074002.190000",
                "074003.350000",
                "074004.510000",
                "074005.670000",
                "074006.830000",
                "074007.990000",
                "074009.150000",
                "074010.310000",
                "074011.470000",
                "074012.630000",
                "074013.790000",
                "074014.950000",
                "074016.110000",
                "074017.270000",
                "074018.430000",
                "074019.590000",
                "074020.750000",
                "074021.910000",
                "074023.070000",
                "074024.230000",
                "074025.390000",
                "074026.550000",
                "074027.710000",
                "074028.870000",
                "074030.030000",
                "074031.190000",
                "074032.350000",
                "074033.510000",
                "074034.670000",
                "074035.830000",
                "074036.990000",
                "074038.150000",
                "074039.310000",
                "074040.470000",
                "074041.630000",
                "074042.790000",
                "074043.950000",
                "074045.110000",
                "074046.270000",
                "074047.430000",
                "074048.590000",
                "074049.750000",
                "074050.910000",
                "074052.070000",
                "074053.230000",
                "074054.390000",
                "074055.550000",
                "074056.710000",
                "074057.870000",
                "074059.030000",
                "074100.190000",
                "074101.350000",
                "074102.510000",
                "074103.670000",
                "074104.830000",
                "074105.990000",
                "074107.150000",
                "074108.310000",
                "074109.470000",
                "074110.630000",
                "074111.790000",
                "074112.950000",
                "074114.110000",
                "074115.270000",
                "074116.430000",
                "074117.590000",
                "074118.750000",
                "074119.910000",
                "074121.070000",
                "074122.230000",
                "074123.390000",
                "074124.550000",
                "074125.710000",
                "074126.870000",
                "074128.030000",
                "074129.190000",
                "074130.350000",
                "074131.510000",
                "074132.670000",
                "074133.830000",
                "074134.990000",
                "074136.150000",
                "074137.310000",
                "074138.470000",
                "074139.630000",
                "074140.790000",
                "074141.950000",
                "074143.110000",
                "074144.270000",
                "074145.430000",
                "074146.590000",
                "074147.750000",
                "074148.910000",
                "074150.070000",
                "074151.230000",
                "074152.390000",
                "074153.550000",
                "074154.710000",
                "074155.870000",
                "074157.030000",
                "074158.190000",
                "074159.350000",
                "074200.510000",
                "074201.670000",
                "074202.830000",
                "074203.990000",
                "074205.150000",
                "074206.310000",
                "074207.470000",
                "074208.630000",
                "074209.790000",
                "074210.950000",
                "074212.110000",
                "074213.270000",
                "074214.430000",
                "074215.590000",
                "074216.750000",
                "074217.910000",
                "074219.070000",
                "074220.230000",
                "074221.390000",
                "074222.550000",
                "074223.710000",
                "074224.870000",
                "074226.030000",
                "074227.190000",
                "074228.350000",
                "074229.510000",
                "074230.670000",
                "074231.830000",
                "074232.990000",
                "074234.150000",
                "074235.310000",
                "074236.470000",
                "074237.630000",
                "074238.790000",
                "074239.950000",
                "074241.110000",
                "074242.270000",
                "074243.430000",
                "074244.590000",
                "074245.750000",
                "074246.910000",
                "074248.070000",
                "074249.230000",
                "074250.390000",
                "074251.550000",
                "074252.710000",
                "074253.870000",
                "074255.030000",
                "074256.190000",
                "074257.350000",
                "074258.510000",
                "074259.670000",
                "074300.830000",
                "074301.990000",
                "074303.150000",
                "074304.310000",
                "074305.470000",
                "074306.630000",
                "074307.790000",
                "074308.950000",
                "074310.110000",
                "074311.270000",
                "074312.430000",
                "074313.590000",
                "074314.750000",
                "074315.910000",
                "074317.070000",
                "074318.230000",
                "074319.390000",
                "074320.550000",
                "074321.710000",
                "074322.870000",
                "074324.030000",
