{
    "AcquisitionMatrixPE": 96,
    "AcquisitionNumber": 1,
    "AcquisitionTime": "07:45:33.530000",
    "BandwidthPerPixelPhaseEncode": 33.602,
    "BaseResolution": 96,
    "BodyPartExamined": "BRAIN",
    "ConsistencyInfo": "N4_VD11D_LATEST_20110129",
    "ConversionSoftware": "dcm2niix",
    "ConversionSoftwareVersion": "v1.0.20210317",
    "DerivedVendorReportedEchoSpacing": 0.000620003,
    "DeviceSerialNumber": "45239",
    "DwellTime": 2.6e-06,
    "EchoTime": 0.03,
    "EchoTrainLength": 48,
    "EffectiveEchoSpacing": 0.000310001,
    "FlipAngle": 63,
    "ImageComments": "Unaliased MB4/PE3",
    "ImageOrientationPatientDICOM": [
        0.999667,
        0.022316,
        0.0129311,
        -0.0122678,
        0.852431,
        -0.522697
    ],
    "ImageType": [
        "ORIGINAL",
        "PRIMARY",
        "M",
        "ND",
        "NORM",
        "MOSAIC"
    ],
    "ImagingFrequency": 123.193,
    "InPlanePhaseEncodingDirectionDICOM": "COL",
    "InstitutionAddress": "E 24th St. 100,Austin,Southmiddle,US,78712",
    "InstitutionName": "Univ of Texas at Austin",
    "InstitutionalDepartmentName": "IRC",
    "MRAcquisitionType": "2D",
    "MagneticFieldStrength": 3,
    "Manufacturer": "Siemens",
    "ManufacturersModelName": "Skyra",
    "Modality": "MR",
    "MultibandAccelerationFactor": 4,
    "ParallelReductionFactorInPlane": 2,
    "PartialFourier": 1,
    "PatientPosition": "HFS",
    "PercentPhaseFOV": 100,
    "PercentSampling": 100,
    "PhaseEncodingDirection": "j-",
    "PhaseEncodingSteps": 96,
    "PhaseResolution": 1,
    "PixelBandwidth": 2005,
    "ProcedureStepDescription": "Poldrack2^self-scanning",
    "ProtocolName": "Resting State fMRI MBEPI_matrix96_BW2004",
    "PulseSequenceDetails": "%CustomerSeq%\\cmrr_mbep2d_bold",
    "ReceiveCoilActiveElements": "HEA;HEP",
    "ReceiveCoilName": "Head_32",
    "ReconMatrixPE": 96,
    "RefLinesPE": 94,
    "RepetitionTime": 1.16,
    "SAR": 0.0971194,
    "ScanOptions": "FS",
    "ScanningSequence": "EP",
    "SequenceName": "epfid2d1_96",
    "SequenceVariant": "SK",
    "SeriesDescription": "Resting State fMRI MBEPI_matrix96_BW2004",
    "SeriesNumber": 8,
    "ShimSetting": [
        -2783,
        8044,
        -15416,
        78,
        -200,
        174,
        222,
        -47
    ],
    "SliceThickness": 2,
    "SliceTiming": [
        0,
        0.4975,
        0.995,
        0.355,
        0.8525,
        0.2125,
        0.71,
        0.07,
        0.5675,
        1.0675,
        0.425,
        0.925,
        0.2825,
        0.7825,
        0.1425,
        0.64,
        0,
        0.4975,
        0.995,
        0.355,
        0.8525,
        0.2125,
        0.71,
        0.07,
        0.5675,
        1.0675,
        0.425,
        0.925,
        0.2825,
        0.7825,
        0.1425,
        0.64,
        0,
        0.4975,
        0.995,
        0.355,
        0.8525,
        0.2125,
        0.71,
        0.07,
        0.5675,
        1.0675,
        0.425,
        0.925,
        0.2825,
        0.7825,
        0.1425,
        0.64,
        0,
        0.4975,
        0.995,
        0.355,
        0.8525,
        0.2125,
        0.71,
        0.07,
        0.5675,
        1.0675,
        0.425,
        0.925,
        0.2825,
        0.7825,
        0.1425,
        0.64
    ],
    "SoftwareVersions": "syngo MR D11",
    "SpacingBetweenSlices": 2.4,
    "StationName": "AWP45239",
    "TaskName": "Resting fmri",
    "TotalReadoutTime": 0.0294501,
    "TxRefAmp": 335.954,
    "WipMemBlock": "0dee4265-8dbf-4b3b-a56b-85d2f1964d1e||Sequence: VD11D r206; Feb 13 2013 18:52:04 by eja",
    "dcmmeta_affine": [
        [
            -2.395036220550537,
            -0.029391705989837646,
            0.054449643939733505,
            118.89805603027344
        ],
        [
            -0.053465329110622406,
            2.04228138923645,
            -1.253673791885376,
            -74.46197509765625
        ],
        [
            0.030980780720710754,
            1.2522938251495361,
            2.045809745788574,
            -84.81562805175781
        ],
        [
            0.0,
            0.0,
            0.0,
            1.0
        ]
    ],
    "dcmmeta_reorient_transform": [
        [
            0.0,
            -1.0,
            0.0,
            95.0
        ],
        [
            1.0,
            0.0,
            0.0,
            0.0
        ],
        [
            0.0,
            0.0,
            1.0,
            0.0
        ],
        [
            0.0,
            0.0,
            0.0,
            1.0
        ]
    ],
    "dcmmeta_shape": [
        96,
        96,
        64,
        518
    ],
    "dcmmeta_slice_dim": 2,
    "dcmmeta_version": 0.6,
    "global": {
        "const": {
            "AcquisitionMatrix": [
                96,
                0,
                0,
                96
            ],
            "AngioFlag": "N",
            "BitsAllocated": 16,
            "BitsStored": 16,
            "BodyPartExamined": "BRAIN",
            "Columns": 768,
            "EchoNumbers": 1,
            "EchoTime": 30.0,
            "EchoTrainLength": 48,
            "FlipAngle": 63.0,
            "HighBit": 15,
            "ImageOrientationPatient": [
                0.99966733674451,
                0.02231596426062,
                0.01293110920451,
                -0.0122678431235,
                0.85243050904971,
                -0.5226965919789
            ],
            "ImagePositionPatient": [
                -910.96241298911,
                -823.72564064611,
                444.513489231
            ],
            "ImageType": [
                "ORIGINAL",
                "PRIMARY",
                "M",
                "ND",
                "NORM",
                "MOSAIC"
            ],
            "ImagedNucleus": "1H",
            "ImagingFrequency": 123.193192,
            "InPlanePhaseEncodingDirection": "COL",
            "MRAcquisitionType": "2D",
            "MagneticFieldStrength": 3.0,
            "Manufacturer": "SIEMENS",
            "ManufacturerModelName": "Skyra",
            "Modality": "MR",
            "NumberOfAverages": 1.0,
            "NumberOfPhaseEncodingSteps": 96,
            "PercentPhaseFieldOfView": 100.0,
            "PercentSampling": 100.0,
            "PerformedProcedureStepStartTime": "071855.328000",
            "PhotometricInterpretation": "MONOCHROME2",
            "PixelBandwidth": 2005.0,
            "PixelRepresentation": 0,
            "PixelSpacing": [
                2.3958332538605,
                2.3958332538605
            ],
            "ProtocolName": "Resting State fMRI MBEPI_matrix96_BW2004",
            "RepetitionTime": 1160.0,
            "Rows": 768,
            "SAR": 0.09711943517604,
            "SamplesPerPixel": 1,
            "ScanOptions": "FS",
            "ScanningSequence": "EP",
            "SequenceName": "epfid2d1_96",
            "SequenceVariant": "SK",
            "SeriesDescription": "Resting State fMRI MBEPI_matrix96_BW2004",
            "SeriesNumber": 8,
            "SeriesTime": "074612.562000",
            "SliceLocation": -30.704855238863,
            "SliceThickness": 2.0,
            "SmallestImagePixelValue": 0,
            "SoftwareVersions": "syngo MR D11",
            "SpacingBetweenSlices": 2.4000000672454,
            "SpecificCharacterSet": "ISO_IR 100",
            "StudyID": "1",
            "StudyTime": "071855.281000",
            "TransmitCoilName": "Body",
            "VariableFlipAngleFlag": "N",
            "WindowCenterWidthExplanation": "Algo1",
            "dBdt": 0.0
        },
        "slices": {}
    },
    "time": {
        "samples": {
            "AcquisitionNumber": [
                1,
                2,
                3,
                4,
                5,
                6,
                7,
                8,
                9,
                10,
                11,
                12,
                13,
                14,
                15,
                16,
                17,
                18,
                19,
                20,
                21,
                22,
                23,
                24,
                25,
                26,
                27,
                28,
                29,
                30,
                31,
                32,
                33,
                34,
                35,
                36,
                37,
                38,
                39,
                40,
                41,
                42,
                43,
                44,
                45,
                46,
                47,
                48,
                49,
                50,
                51,
                52,
                53,
                54,
                55,
                56,
                57,
                58,
                59,
                60,
                61,
                62,
                63,
                64,
                65,
                66,
                67,
                68,
                69,
                70,
                71,
                72,
                73,
                74,
                75,
                76,
                77,
                78,
                79,
                80,
                81,
                82,
                83,
                84,
                85,
                86,
                87,
                88,
                89,
                90,
                91,
                92,
                93,
                94,
                95,
                96,
                97,
                98,
                99,
                100,
                101,
                102,
                103,
                104,
                105,
                106,
                107,
                108,
                109,
                110,
                111,
                112,
                113,
                114,
                115,
                116,
                117,
                118,
                119,
                120,
                121,
                122,
                123,
                124,
                125,
                126,
                127,
                128,
                129,
                130,
                131,
                132,
                133,
                134,
                135,
                136,
                137,
                138,
                139,
                140,
                141,
                142,
                143,
                144,
                145,
                146,
                147,
                148,
                149,
                150,
                151,
                152,
                153,
                154,
                155,
                156,
                157,
                158,
                159,
                160,
                161,
                162,
                163,
                164,
                165,
                166,
                167,
                168,
                169,
                170,
                171,
                172,
                173,
                174,
                175,
                176,
                177,
                178,
                179,
                180,
                181,
                182,
                183,
                184,
                185,
                186,
                187,
                188,
                189,
                190,
                191,
                192,
                193,
                194,
                195,
                196,
                197,
                198,
                199,
                200,
                201,
                202,
                203,
                204,
                205,
                206,
                207,
                208,
                209,
                210,
                211,
                212,
                213,
                214,
                215,
                216,
                217,
                218,
                219,
                220,
                221,
                222,
                223,
                224,
                225,
                226,
                227,
                228,
                229,
                230,
                231,
                232,
                233,
                234,
                235,
                236,
                237,
                238,
                239,
                240,
                241,
                242,
                243,
                244,
                245,
                246,
                247,
                248,
                249,
                250,
                251,
                252,
                253,
                254,
                255,
                256,
                257,
                258,
                259,
                260,
                261,
                262,
                263,
                264,
                265,
                266,
                267,
                268,
                269,
                270,
                271,
                272,
                273,
                274,
                275,
                276,
                277,
                278,
                279,
                280,
                281,
                282,
                283,
                284,
                285,
                286,
                287,
                288,
                289,
                290,
                291,
                292,
                293,
                294,
                295,
                296,
                297,
                298,
                299,
                300,
                301,
                302,
                303,
                304,
                305,
                306,
                307,
                308,
                309,
                310,
                311,
                312,
                313,
                314,
                315,
                316,
                317,
                318,
                319,
                320,
                321,
                322,
                323,
                324,
                325,
                326,
                327,
                328,
                329,
                330,
                331,
                332,
                333,
                334,
                335,
                336,
                337,
                338,
                339,
                340,
                341,
                342,
                343,
                344,
                345,
                346,
                347,
                348,
                349,
                350,
                351,
                352,
                353,
                354,
                355,
                356,
                357,
                358,
                359,
                360,
                361,
                362,
                363,
                364,
                365,
                366,
                367,
                368,
                369,
                370,
                371,
                372,
                373,
                374,
                375,
                376,
                377,
                378,
                379,
                380,
                381,
                382,
                383,
                384,
                385,
                386,
                387,
                388,
                389,
                390,
                391,
                392,
                393,
                394,
                395,
                396,
                397,
                398,
                399,
                400,
                401,
                402,
                403,
                404,
                405,
                406,
                407,
                408,
                409,
                410,
                411,
                412,
                413,
                414,
                415,
                416,
                417,
                418,
                419,
                420,
                421,
                422,
                423,
                424,
                425,
                426,
                427,
                428,
                429,
                430,
                431,
                432,
                433,
                434,
                435,
                436,
                437,
                438,
                439,
                440,
                441,
                442,
                443,
                444,
                445,
                446,
                447,
                448,
                449,
                450,
                451,
                452,
                453,
                454,
                455,
                456,
                457,
                458,
                459,
                460,
                461,
                462,
                463,
                464,
                465,
                466,
                467,
                468,
                469,
                470,
                471,
                472,
                473,
                474,
                475,
                476,
                477,
                478,
                479,
                480,
                481,
                482,
                483,
                484,
                485,
                486,
                487,
                488,
                489,
                490,
                491,
                492,
                493,
                494,
                495,
                496,
                497,
                498,
                499,
                500,
                501,
                502,
                503,
                504,
                505,
                506,
                507,
                508,
                509,
                510,
                511,
                512,
                513,
                514,
                515,
                516,
                517,
                518
            ],
            "AcquisitionTime": [
                "074533.530000",
                "074602.530000",
                "074603.690000",
                "074604.850000",
                "074606.010000",
                "074607.170000",
                "074608.330000",
                "074609.490000",
                "074610.650000",
                "074611.810000",
                "074612.970000",
                "074614.130000",
                "074615.290000",
                "074616.450000",
                "074617.610000",
                "074618.770000",
                "074619.930000",
                "074621.090000",
                "074622.250000",
                "074623.410000",
                "074624.570000",
                "074625.730000",
                "074626.890000",
                "074628.050000",
                "074629.210000",
                "074630.370000",
                "074631.530000",
                "074632.690000",
                "074633.850000",
                "074635.010000",
                "074636.170000",
                "074637.330000",
                "074638.490000",
                "074639.650000",
                "074640.810000",
                "074641.970000",
                "074643.130000",
                "074644.290000",
                "074645.450000",
                "074646.610000",
                "074647.770000",
                "074648.930000",
                "074650.090000",
                "074651.250000",
                "074652.410000",
                "074653.570000",
                "074654.730000",
                "074655.890000",
                "074657.050000",
                "074658.210000",
                "074659.370000",
                "074700.530000",
                "074701.690000",
                "074702.850000",
                "074704.010000",
                "074705.170000",
                "074706.330000",
                "074707.490000",
                "074708.650000",
                "074709.810000",
                "074710.970000",
                "074712.130000",
                "074713.290000",
                "074714.450000",
                "074715.610000",
                "074716.770000",
                "074717.930000",
                "074719.090000",
                "074720.250000",
                "074721.410000",
                "074722.570000",
                "074723.730000",
                "074724.890000",
                "074726.050000",
                "074727.210000",
                "074728.370000",
                "074729.530000",
                "074730.690000",
                "074731.850000",
                "074733.010000",
                "074734.170000",
                "074735.330000",
                "074736.490000",
                "074737.650000",
                "074738.810000",
                "074739.970000",
                "074741.130000",
                "074742.290000",
                "074743.450000",
                "074744.610000",
                "074745.770000",
                "074746.930000",
                "074748.090000",
                "074749.250000",
                "074750.410000",
                "074751.570000",
                "074752.730000",
                "074753.890000",
                "074755.050000",
                "074756.210000",
                "074757.370000",
                "074758.530000",
                "074759.690000",
                "074800.850000",
                "074802.010000",
                "074803.170000",
                "074804.330000",
                "074805.490000",
                "074806.650000",
                "074807.810000",
                "074808.970000",
                "074810.130000",
                "074811.290000",
                "074812.450000",
                "074813.610000",
                "074814.770000",
                "074815.930000",
                "074817.090000",
                "074818.250000",
                "074819.410000",
                "074820.570000",
                "074821.730000",
                "074822.890000",
                "074824.050000",
                "074825.210000",
                "074826.370000",
                "074827.530000",
                "074828.690000",
                "074829.850000",
                "074831.010000",
                "074832.170000",
                "074833.330000",
                "074834.490000",
                "074835.650000",
                "074836.810000",
                "074837.970000",
                "074839.130000",
                "074840.290000",
                "074841.450000",
                "074842.610000",
                "074843.770000",
                "074844.930000",
                "074846.090000",
                "074847.250000",
                "074848.410000",
                "074849.570000",
                "074850.730000",
                "074851.890000",
                "074853.050000",
                "074854.210000",
                "074855.370000",
                "074856.530000",
                "074857.690000",
                "074858.850000",
                "074900.010000",
                "074901.170000",
                "074902.330000",
                "074903.490000",
                "074904.650000",
                "074905.810000",
                "074906.970000",
                "074908.130000",
                "074909.290000",
                "074910.450000",
                "074911.610000",
                "074912.770000",
                "074913.930000",
                "074915.090000",
                "074916.250000",
                "074917.410000",
                "074918.570000",
                "074919.730000",
                "074920.890000",
                "074922.050000",
                "074923.210000",
                "074924.370000",
                "074925.530000",
                "074926.690000",
                "074927.850000",
                "074929.010000",
                "074930.170000",
                "074931.330000",
                "074932.490000",
                "074933.650000",
                "074934.810000",
                "074935.970000",
                "074937.130000",
                "074938.290000",
                "074939.450000",
                "074940.610000",
                "074941.770000",
                "074942.930000",
                "074944.090000",
                "074945.250000",
                "074946.410000",
                "074947.570000",
                "074948.730000",
                "074949.890000",
                "074951.050000",
                "074952.210000",
                "074953.370000",
                "074954.530000",
                "074955.690000",
                "074956.850000",
                "074958.010000",
                "074959.170000",
                "075000.330000",
                "075001.490000",
                "075002.650000",
                "075003.810000",
                "075004.970000",
                "075006.130000",
                "075007.290000",
                "075008.450000",
                "075009.610000",
                "075010.770000",
                "075011.930000",
                "075013.090000",
                "075014.250000",
                "075015.410000",
                "075016.570000",
                "075017.730000",
                "075018.890000",
                "075020.050000",
                "075021.210000",
                "075022.370000",
                "075023.530000",
                "075024.690000",
                "075025.850000",
                "075027.010000",
                "075028.170000",
                "075029.330000",
                "075030.490000",
                "075031.650000",
                "075032.810000",
                "075033.970000",
                "075035.130000",
                "075036.290000",
                "075037.450000",
                "075038.610000",
                "075039.770000",
                "075040.930000",
                "075042.090000",
                "075043.252500",
                "075044.412500",
                "075045.572500",
                "075046.732500",
                "075047.892500",
                "075049.052500",
                "075050.212500",
                "075051.372500",
                "075052.532500",
                "075053.692500",
                "075054.852500",
                "075056.012500",
                "075057.172500",
                "075058.332500",
                "075059.492500",
                "075100.652500",
                "075101.812500",
                "075102.972500",
                "075104.132500",
                "075105.292500",
                "075106.452500",
                "075107.612500",
                "075108.772500",
                "075109.932500",
                "075111.092500",
                "075112.252500",
                "075113.412500",
                "075114.572500",
                "075115.732500",
                "075116.892500",
                "075118.052500",
                "075119.212500",
                "075120.372500",
                "075121.532500",
                "075122.692500",
                "075123.852500",
                "075125.012500",
                "075126.172500",
                "075127.332500",
                "075128.492500",
                "075129.652500",
                "075130.812500",
                "075131.972500",
                "075133.132500",
                "075134.292500",
                "075135.452500",
                "075136.612500",
                "075137.772500",
                "075138.932500",
                "075140.092500",
                "075141.252500",
                "075142.412500",
                "075143.572500",
                "075144.732500",
                "075145.892500",
                "075147.052500",
                "075148.212500",
                "075149.372500",
                "075150.532500",
                "075151.692500",
                "075152.852500",
                "075154.012500",
                "075155.172500",
                "075156.332500",
                "075157.492500",
                "075158.652500",
                "075159.812500",
                "075200.972500",
                "075202.132500",
                "075203.292500",
                "075204.452500",
                "075205.612500",
                "075206.772500",
                "075207.932500",
                "075209.092500",
                "075210.252500",
                "075211.412500",
                "075212.572500",
                "075213.732500",
                "075214.892500",
                "075216.052500",
                "075217.212500",
                "075218.372500",
                "075219.532500",
                "075220.692500",
                "075221.852500",
                "075223.012500",
                "075224.172500",
                "075225.332500",
                "075226.492500",
                "075227.652500",
                "075228.812500",
                "075229.972500",
                "075231.132500",
                "075232.292500",
                "075233.452500",
                "075234.612500",
                "075235.772500",
                "075236.932500",
                "075238.092500",
                "075239.252500",
                "075240.412500",
                "075241.572500",
                "075242.732500",
