{"AcquisitionMatrixPE": 96, "AcquisitionNumber": 1, "AcquisitionTime": "07:51:51.057500", "BandwidthPerPixelPhaseEncode": 33.602, "BaseResolution": 96, "BodyPartExamined": "BRAIN", "ConsistencyInfo": "N4_VD11D_LATEST_20110129", "ConversionSoftware": "dcm2niix", "ConversionSoftwareVersion": "v1.0.20210317", "DerivedVendorReportedEchoSpacing": 0.000620003, "DeviceSerialNumber": "45239", "DwellTime": 2.6e-06, "EchoTime": 0.03, "EchoTrainLength": 48, "EffectiveEchoSpacing": 0.000310001, "FlipAngle": 63, "ImageComments": "Unaliased MB4/PE3", "ImageOrientationPatientDICOM": [0.999403, 0.0298613, -0.0173797, -0.0345506, 0.863759, -0.50272], "ImageType": ["ORIGINAL", "PRIMARY", "M", "ND", "NORM", "MOSAIC"], "ImagingFrequency": 123.193, "InPlanePhaseEncodingDirectionDICOM": "COL", "InstitutionAddress": "E 24th St. 100,Austin,Southmiddle,US,78712", "InstitutionName": "Univ of Texas at Austin", "InstitutionalDepartmentName": "IRC", "MRAcquisitionType": "2D", "MagneticFieldStrength": 3, "Manufacturer": "Siemens", "ManufacturersModelName": "Skyra", "Modality": "MR", "MultibandAccelerationFactor": 4, "ParallelReductionFactorInPlane": 2, "PartialFourier": 1, "PatientPosition": "HFS", "PercentPhaseFOV": 100, "PercentSampling": 100, "PhaseEncodingDirection": "j-", "PhaseEncodingSteps": 96, "PhaseResolution": 1, "PixelBandwidth": 2005, "ProcedureStepDescription": "Poldrack2^self-scanning", "ProtocolName": "N-back fMRI MBEPI_matrix96_BW200", "PulseSequenceDetails": "%CustomerSeq%\\cmrr_mbep2d_bold", "ReceiveCoilActiveElements": "HEA;HEP", "ReceiveCoilName": "Head_32", "ReconMatrixPE": 96, "RefLinesPE": 94, "RepetitionTime": 1.16, "SAR": 0.109425, "ScanOptions": "FS", "ScanningSequence": "EP", "SequenceName": "epfid2d1_96", "SequenceVariant": "SK", "SeriesDescription": "N-back fMRI MBEPI_matrix96_BW200", "SeriesNumber": 13, "ShimSetting": [-2778, 8011, -15926, -121, -141, -89, -18, -21], "SliceThickness": 2, "SliceTiming": [0, 0.6125, 0.0675, 0.68, 0.135, 0.75, 0.2025, 0.8175, 0.2725, 0.885, 0.34, 0.955, 0.4075, 1.0225, 0.4775, 1.09, 0.545, 0, 0.6125, 0.0675, 0.68, 0.135, 0.75, 0.2025, 0.8175, 0.2725, 0.885, 0.34, 0.955, 0.4075, 1.0225, 0.4775, 1.09, 0.545, 0, 0.6125, 0.0675, 0.68, 0.135, 0.75, 0.2025, 0.8175, 0.2725, 0.885, 0.34, 0.955, 0.4075, 1.0225, 0.4775, 1.09, 0.545, 0, 0.6125, 0.0675, 0.68, 0.135, 0.75, 0.2025, 0.8175, 0.2725, 0.885, 0.34, 0.955, 0.4075, 1.0225, 0.4775, 1.09, 0.545], "SoftwareVersions": "syngo MR D11", "SpacingBetweenSlices": 2.4, "StationName": "AWP45239", "TaskName": "N-back task", "TotalReadoutTime": 0.0294501, "TxRefAmp": 346.147, "WipMemBlock": "28385614-7002-4a3b-bc27-7d627a1c7765||Sequence: VD11D r154; May 23 2012 22:27:19 by eja", "dcmmeta_affine": [[-2.3944027423858643, -0.08277758955955505, 2.1470484057317663e-08, 122.85857391357422], [-0.07154259830713272, 2.0694220066070557, -1.2072478532791138, -67.88978576660156], [-0.04163876175880432, 1.2044323682785034, 2.0742595195770264, -71.71710968017578], [0.0, 0.0, 0.0, 1.0]], "dcmmeta_reorient_transform": [[0.0, -1.0, 0.0, 95.0], [1.0, 0.0, 0.0, 0.0], [0.0, 0.0, 1.0, 0.0], [0.0, 0.0, 0.0, 1.0]], "dcmmeta_shape": [96, 96, 68, 380], "dcmmeta_slice_dim": 2, "dcmmeta_version": 0.6, "global": {"const": {"AcquisitionMatrix": [96, 0, 0, 96], "AngioFlag": "N", "BitsAllocated": 16, "BitsStored": 16, "BodyPartExamined": "BRAIN", "Columns": 864, "EchoNumbers": 1, "EchoTime": 30.0, "EchoTrainLength": 48, "FlipAngle": 63.0, "HighBit": 15, "ImageOrientationPatient": [0.99940294815736, 0.02986125799371, -0.0173796572294, -0.0345506470906, 0.8637587798666, -0.50271962662], "ImagePositionPatient": [-1002.6587868063, -950.83571531083, 521.19529616478], "ImageType": ["ORIGINAL", "PRIMARY", "M", "ND", "NORM", "MOSAIC"], "ImagedNucleus": "1H", "ImagingFrequency": 123.193445, "InPlanePhaseEncodingDirection": "COL", "MRAcquisitionType": "2D", "MagneticFieldStrength": 3.0, "Manufacturer": "SIEMENS", "ManufacturerModelName": "Skyra", "Modality": "MR", "NumberOfAverages": 1.0, "NumberOfPhaseEncodingSteps": 96, "PercentPhaseFieldOfView": 100.0, "PercentSampling": 100.0, "PerformedProcedureStepStartTime": "071410.218000", "PhotometricInterpretation": "MONOCHROME2", "PixelBandwidth": 2005.0, "PixelRepresentation": 0, "PixelSpacing": [2.3958332538605, 2.3958332538605], "ProtocolName": "N-back fMRI MBEPI_matrix96_BW200", "RepetitionTime": 1160.0, "Rows": 864, "SAR": 0.10942500619846, "SamplesPerPixel": 1, "ScanOptions": "FS", "ScanningSequence": "EP", "SequenceName": "epfid2d1_96", "SequenceVariant": "SK", "SeriesDescription": "N-back fMRI MBEPI_matrix96_BW200", "SeriesNumber": 13, "SeriesTime": "075418.109000", "SliceLocation": -27.833371356693, "SliceThickness": 2.0, "SmallestImagePixelValue": 0, "SoftwareVersions": "syngo MR D11", "SpacingBetweenSlices": 2.4000000019283, "SpecificCharacterSet": "ISO_IR 100", "StudyID": "1", "StudyTime": "071410.187000", "TransmitCoilName": "Body", "VariableFlipAngleFlag": "N", "WindowCenterWidthExplanation": "Algo1", "dBdt": 0.0}, "slices": {}}, "time": {"samples": {"AcquisitionNumber": [1, 2, 3, 4, 5, 6, 7, 8, 9, 10, 11, 12, 13, 14, 15, 16, 17, 18, 19, 20, 21, 22, 23, 24, 25, 26, 27, 28, 29, 30, 31, 32, 33, 34, 35, 36, 37, 38, 39, 40, 41, 42, 43, 44, 45, 46, 47, 48, 49, 50, 51, 52, 53, 54, 55, 56, 57, 58, 59, 60, 61, 62, 63, 64, 65, 66, 67, 68, 69, 70, 71, 72, 73, 74, 75, 76, 77, 78, 79, 80, 81, 82, 83, 84, 85, 86, 87, 88, 89, 90, 91, 92, 93, 94, 95, 96, 97, 98, 99, 100, 101, 102, 103, 104, 105, 106, 107, 108, 109, 110, 111, 112, 113, 114, 115, 116, 117, 118, 119, 120, 121, 122, 123, 124, 125, 126, 127, 128, 129, 130, 131, 132, 133, 134, 135, 136, 137, 138, 139, 140, 141, 142, 143, 144, 145, 146, 147, 148, 149, 150, 151, 152, 153, 154, 155, 156, 157, 158, 159, 160, 161, 162, 163, 164, 165, 166, 167, 168, 169, 170, 171, 172, 173, 174, 175, 176, 177, 178, 179, 180, 181, 182, 183, 184, 185, 186, 187, 188, 189, 190, 191, 192, 193, 194, 195, 196, 197, 198, 199, 200, 201, 202, 203, 204, 205, 206, 207, 208, 209, 210, 211, 212, 213, 214, 215, 216, 217, 218, 219, 220, 221, 222, 223, 224, 225, 226, 227, 228, 229, 230, 231, 232, 233, 234, 235, 236, 237, 238, 239, 240, 241, 242, 243, 244, 245, 246, 247, 248, 249, 250, 251, 252, 253, 254, 255, 256, 257, 258, 259, 260, 261, 262, 263, 264, 265, 266, 267, 268, 269, 270, 271, 272, 273, 274, 275, 276, 277, 278, 279, 280, 281, 282, 283, 284, 285, 286, 287, 288, 289, 290, 291, 292, 293, 294, 295, 296, 297, 298, 299, 300, 301, 302, 303, 304, 305, 306, 307, 308, 309, 310, 311, 312, 313, 314, 315, 316, 317, 318, 319, 320, 321, 322, 323, 324, 325, 326, 327, 328, 329, 330, 331, 332, 333, 334, 335, 336, 337, 338, 339, 340, 341, 342, 343, 344, 345, 346, 347, 348, 349, 350, 351, 352, 353, 354, 355, 356, 357, 358, 359, 360, 361, 362, 363, 364, 365, 366, 367, 368, 369, 370, 371, 372, 373, 374, 375, 376, 377, 378, 379, 380], "AcquisitionTime": ["075151.057500", "075220.057500", "075221.217500", "075222.377500", "075223.537500", "075224.697500", "075225.857500", "075227.017500", "075228.177500", "075229.337500", "075230.497500", "075231.657500", "075232.817500", "075233.977500", "075235.137500", "075236.297500", "075237.457500", "075238.617500", "075239.777500", "075240.937500", "075242.097500", "075243.257500", "075244.417500", "075245.577500", "075246.737500", "075247.897500", "075249.057500", "075250.217500", "075251.377500", "075252.537500", "075253.697500", "075254.857500", "075256.017500", "075257.177500", "075258.337500", "075259.497500", "075300.657500", "075301.817500", "075302.977500", "075304.137500", "075305.297500", "075306.457500", "075307.617500", "075308.777500", "075309.937500", "075311.097500", "075312.257500", "075313.417500", "075314.577500", "075315.737500", "075316.897500", "075318.057500", "075319.217500", "075320.377500", "075321.537500", "075322.697500", "075323.857500", "075325.017500", "075326.177500", "075327.337500", "075328.497500", "075329.657500", "075330.817500", "075331.977500", "075333.137500", "075334.297500", "075335.457500", "075336.617500", "075337.777500", "075338.937500", "075340.097500", "075341.257500", "075342.417500", "075343.577500", "075344.737500", "075345.897500", "075347.057500", "075348.217500", "075349.377500", "075350.537500", "075351.697500", "075352.857500", "075354.017500", "075355.177500", "075356.337500", "075357.497500", "075358.657500", "075359.817500", "075400.977500", "075402.137500", "075403.297500", "075404.457500", "075405.617500", "075406.777500", "075407.937500", "075409.097500", "075410.257500", "075411.417500", "075412.577500", "075413.737500", "075414.897500", "075416.057500", "075417.217500", "075418.377500", "075419.537500", "075420.697500", "075421.857500", "075423.017500", "075424.177500", "075425.337500", "075426.497500", "075427.657500", "075428.817500", "075429.977500", "075431.137500", "075432.297500", "075433.457500", "075434.617500", "075435.777500", "075436.937500", "075438.097500", "075439.257500", "075440.417500", "075441.577500", "075442.737500", "075443.897500", "075445.057500", "075446.217500", "075447.377500", "075448.537500", "075449.697500", "075450.857500", "075452.017500", "075453.177500", "075454.337500", "075455.497500", "075456.657500", "075457.817500", "075458.977500", "075500.137500", "075501.297500", "075502.457500", "075503.617500", "075504.777500", "075505.937500", "075507.097500", "075508.257500", "075509.417500", "075510.577500", "075511.737500", "075512.897500", "075514.057500", "075515.217500", "075516.377500", "075517.537500", "075518.697500", "075519.857500", "075521.017500", "075522.177500", "075523.337500", "075524.497500", "075525.657500", "075526.817500", "075527.977500", "075529.137500", "075530.297500", "075531.457500", "075532.617500", "075533.777500", "075534.937500", "075536.097500", "075537.257500", "075538.417500", "075539.577500", "075540.737500", "075541.897500", "075543.057500", "075544.217500", "075545.377500", "075546.537500", "075547.697500", "075548.857500", "075550.017500", "075551.177500", "075552.337500", "075553.497500", "075554.657500", "075555.817500", "075556.977500", "075558.137500", "075559.297500", "075600.457500", "075601.617500", "075602.777500", "075603.937500", "075605.097500", "075606.257500", "075607.417500", "075608.577500", "075609.737500", "075610.897500", "075612.057500", "075613.217500", "075614.377500", "075615.537500", "075616.697500", "075617.857500", "075619.017500", "075620.177500", "075621.337500", "075622.497500", "075623.657500", "075624.817500", "075625.977500", "075627.137500", "075628.297500", "075629.457500", "075630.617500", "075631.777500", "075632.937500", "075634.097500", "075635.257500", "075636.417500", "075637.577500", "075638.737500", "075639.897500", "075641.057500", "075642.217500", "075643.377500", "075644.537500", "075645.697500", "075646.857500", "075648.017500", "075649.177500", "075650.337500", "075651.497500", "075652.657500", "075653.817500", "075654.977500", "075656.137500", "075657.297500", "075658.457500", "075659.617500", "075700.777500", "075701.937500", "075703.097500", "075704.257500", "075705.417500", "075706.577500", "075707.737500", "075708.897500", "075710.057500", "075711.217500", "075712.377500", "075713.537500", "075714.697500", "075715.857500", "075717.017500", "075718.177500", "075719.337500", "075720.497500", "075721.657500", "075722.817500", "075723.977500", "075725.137500", "075726.297500", "075727.457500", "075728.617500", "075729.777500", "075730.937500", "075732.097500", "075733.257500", "075734.417500", "075735.577500", "075736.737500", "075737.897500", "075739.057500", "075740.217500", "075741.377500", "075742.537500", "075743.697500", "075744.857500", "075746.017500", "075747.177500", "075748.337500", "075749.497500", "075750.657500", "075751.817500", "075752.977500", "075754.137500", "075755.297500", "075756.457500", "075757.617500", "075758.777500", "075759.937500", "075801.097500", "075802.257500", "075803.417500", "075804.577500", "075805.737500", "075806.897500", "075808.057500", "075809.217500", "075810.377500", "075811.537500", "075812.697500", "075813.857500", "075815.017500", "075816.177500", "075817.337500", "075818.497500", "075819.657500", "075820.817500", "075821.977500", "075823.137500", "075824.297500", "075825.457500", "075826.617500", "075827.777500", "075828.937500", "075830.097500", "075831.257500", "075832.417500", "075833.577500", "075834.737500", "075835.897500", "075837.057500", "075838.217500", "075839.377500", "075840.537500", "075841.697500", "075842.857500", "075844.017500", "075845.177500", "075846.337500", "075847.497500", "075848.657500", "075849.817500", "075850.977500", "075852.137500", "075853.297500", "075854.457500", "075855.617500", "075856.777500", "075857.937500", "075859.097500", "075900.257500", "075901.417500", "075902.577500", "075903.737500", "075904.897500", "075906.057500", "075907.217500", "075908.377500", "075909.537500", "075910.697500", "075911.857500", "075913.017500", "075914.177500", "075915.337500", "075916.497500", "075917.657500", "075918.817500", "075919.977500", "075921.137500", "075922.297500", "075923.457500", "075924.617500", "075925.777500", "075926.937500", "075928.097500", "075929.257500", "075930.417500", "075931.577500", "075932.737500", "075933.897500", "075935.057500", "075936.217500", "075937.377500", "075938.537500"], "ContentTime": ["075418.109000", "075427.234000", "075427.250000", "075427.250000", "075427.250000", "075427.250000", "075432.234000", "075432.250000", "075432.250000", "075437.234000", "075437.250000", "075442.234000", "075442.250000", "075442.250000", "075447.234000", "075447.265000", "075452.234000", "075452.250000", "075452.250000", "075457.234000", "075457.250000", "075457.250000", "075502.234000", "075502.250000", "075507.234000", "075507.250000", "075507.250000", "075512.234000", "075512.250000", "075517.234000", "075517.250000", "075517.250000", "075522.234000", "075522.250000", "075527.234000", "075527.250000", "075527.250000", "075532.234000", "075532.250000", "075537.234000", "075537.250000", "075537.250000", "075542.234000", "075542.234000", "075542.250000", "075547.234000", "075547.250000", "075552.234000", "075552.250000", "075552.250000", "075557.234000", "075557.250000", "075602.234000", "075602.250000", "075607.234000", "075607.250000", "075607.250000", "075612.250000", "075612.250000", "075612.250000", "075617.234000", "075617.234000", "075622.234000", "075622.250000", "075622.250000", "075627.234000", "075627.250000", "075632.234000", "075632.250000", "075632.250000", "075637.234000", "075637.234000", "075637.250000", "075642.234000", "075642.250000", "075647.234000", "075647.250000", "075647.250000", "075652.234000", "075652.250000", "075657.234000", "075657.250000", "075657.250000", "075702.234000", "075702.234000", "075707.234000", "075707.250000", "075707.250000", "075712.234000", "075712.250000", "075712.250000", "075717.234000", "075717.250000", "075722.234000", "075722.250000", "075722.250000", "075727.234000", "075727.250000", "075732.234000", "075732.250000", "075732.250000", "075737.234000", "075737.250000", "075742.234000", "075742.250000", "075742.250000", "075747.234000", "075747.250000", "075752.234000", "075752.250000", "075752.250000", "075757.234000", "075757.250000", "075802.234000", "075802.250000", "075802.250000", "075807.234000", "075807.250000", "075807.250000", "075812.234000", "075812.250000", "075817.234000", "075817.250000", "075817.250000", "075822.234000", "075822.250000", "075827.234000", "075827.250000", "075827.250000", "075832.234000", "075832.250000", "075832.250000", "075837.234000", "075837.250000", "075842.234000", "075842.250000", "075842.250000", "075847.234000", "075847.250000", "075852.234000", "075852.250000", "075852.250000", "075857.234000", "075857.250000", "075902.234000", "075902.250000", "075902.250000", "075907.234000", "075907.250000", "075912.234000", "075912.250000", "075912.250000", "075917.234000", "075917.250000", "075922.234000", "075922.250000", "075922.250000", "075927.234000", "075927.250000", "075932.234000", "075932.250000", "075932.250000", "075937.234000", "075937.250000", "075937.250000", "075942.234000", "075942.250000", "075947.234000", "075947.250000", "075947.250000", "075952.234000", "075952.250000", "075952.250000", "075957.234000", "075957.234000", "080002.234000", "080002.250000", "080002.250000", "080007.234000", "080007.250000", "080007.250000", "080012.234000", "080012.250000", "080012.250000", "080017.234000", "080017.234000", "080022.234000", "080022.250000", "080022.250000", "080027.234000", "080027.250000", "080027.250000", "080032.234000", "080032.250000", "080037.234000", "080037.250000", "080037.250000", "080042.234000", "080042.250000", "080047.234000", "080047.250000", "080047.250000", "080052.234000", "080052.250000", "080052.250000", "080057.234000", "080057.250000", "080057.250000", "080102.234000", "080102.250000", "080102.250000", "080107.234000", "080107.250000", "080112.234000", "080112.250000", "080112.250000", "080117.234000", "080117.250000", "080117.250000", "080122.234000", "080122.250000", "080122.250000", "080127.234000", "080127.250000", "080127.250000", "080132.234000", "080132.250000", "080137.234000", "080137.234000", "080137.250000", "080142.234000", "080142.250000", "080142.250000", "080147.234000", "080147.250000", "080147.250000", "080152.234000", "080152.250000", "080157.234000", "080157.250000", "080157.250000", "080202.234000", "080202.250000", "080202.250000", "080207.234000", "080207.250000", "080207.265000", "080212.234000", "080212.250000", "080212.250000", "080217.234000", "080217.250000", "080222.234000", "080222.250000", "080222.250000", "080227.234000", "080227.250000", "080227.250000", "080232.234000", "080232.250000", "080237.234000", "080237.250000", "080237.250000", "080242.234000", "080242.250000", "080242.250000", "080247.234000", "080247.250000", "080247.250000", "080252.234000", "080252.250000", "080252.250000", "080257.234000", "080257.250000", "080302.234000", "080302.250000", "080302.250000", "080302.250000", "080307.234000", "080307.250000", "080312.234000", "080312.250000", "080312.250000", "080317.234000", "080317.250000", "080317.250000", "080322.234000", "080322.250000", "080327.234000", "080327.250000", "080327.250000", "080332.234000", "080332.250000", "080332.250000", "080337.234000", "080337.250000", "080337.250000", "080342.234000", "080342.250000", "080347.234000", "080347.250000", "080347.250000", "080352.234000", "080352.250000", "080352.250000", "080357.234000", "080357.250000", "080357.250000", "080402.234000", "080402.250000", "080402.250000", "080407.234000", "080407.250000", "080412.234000", "080412.250000", "080412.250000", "080417.234000", "080417.250000", "080417.250000", "080422.234000", "080422.250000", "080427.234000", "080427.250000", "080427.250000", "080432.234000", "080432.250000", "080432.250000", "080437.234000", "080437.250000", "080437.250000", "080442.234000", "080442.250000", "080447.234000", "080447.250000", "080447.250000", "080452.234000", "080452.250000", "080452.250000", "080457.234000", "080457.250000", "080502.234000", "080502.250000", "080502.250000", "080507.234000", "080507.250000", "080507.250000", "080512.234000", "080512.250000", "080512.250000", "080517.234000", "080517.250000", "080517.250000", "080527.234000", "080527.250000", "080527.250000", "080527.250000", "080527.265000", "080532.234000", "080532.250000", "080532.250000", "080537.234000", "080537.250000", "080542.234000", "080542.250000", "080542.250000", "080547.234000", "080547.250000", "080547.250000", "080552.234000", "080552.250000", "080552.250000", "080557.234000", "080557.250000", "080557.250000", "080602.234000", "080602.250000", "080607.234000", "080607.250000", "080607.250000", "080608.281000"], "InstanceCreationTime": ["075418.109000", "075427.234000", "075427.250000", "075427.250000", "075427.250000", "075427.250000", "075432.234000", "075432.250000", "075432.250000", "075437.234000", "075437.250000", "075442.234000", "075442.250000", "075442.250000", "075447.234000", "075447.265000", "075452.234000", "075452.250000", "075452.250000", "075457.234000", "075457.250000", "075457.250000", "075502.234000", "075502.250000", "075507.234000", "075507.250000", "075507.250000", "075512.234000", "075512.250000", "075517.234000", "075517.250000", "075517.250000", "075522.234000", "075522.250000", "075527.234000", "075527.250000", "075527.250000", "075532.234000", "075532.250000", "075537.234000", "075537.250000", "075537.250000", "075542.234000", "075542.234000", "075542.250000", "075547.234000", "075547.250000", "075552.234000", "075552.250000", "075552.250000", "075557.234000", "075557.250000", "075602.234000", "075602.250000", "075607.234000", "075607.250000", "075607.250000", "075612.250000", "075612.250000", "075612.250000", "075617.234000", "075617.234000", "075622.234000", "075622.250000", "075622.250000", "075627.234000", "075627.250000", "075632.234000", "075632.250000", "075632.250000", "075637.234000", "075637.234000", "075637.250000", "075642.234000", "075642.250000", "075647.234000", "075647.250000", "075647.250000", "075652.234000", "075652.250000", "075657.234000", "075657.250000", "075657.250000", "075702.234000", "075702.234000", "075707.234000", "075707.250000", "075707.250000", "075712.234000", "075712.250000", "075712.250000", "075717.234000", "075717.250000", "075722.234000", "075722.250000", "075722.250000", "075727.234000", "075727.250000", "075732.234000", "075732.250000", "075732.250000", "075737.234000", "075737.250000", "075742.234000", "075742.250000", "075742.250000", "075747.234000", "075747.250000", "075752.234000", "075752.250000", "075752.250000", "075757.234000", "075757.250000", "075802.234000", "075802.250000", "075802.250000", "075807.234000", "075807.250000", "075807.250000", "075812.234000", "075812.250000", "075817.234000", "075817.250000", "075817.250000", "075822.234000", "075822.250000", "075827.234000", "075827.250000", "075827.250000", "075832.234000", "075832.250000", "075832.250000", "075837.234000", "075837.250000", "075842.234000", "075842.250000", "075842.250000", "075847.234000", "075847.250000", "075852.234000", "075852.250000", "075852.250000", "075857.234000", "075857.250000", "075902.234000", "075902.250000", "075902.250000", "075907.234000", "075907.250000", "075912.234000", "075912.250000", "075912.250000", "075917.234000", "075917.250000", "075922.234000", "075922.250000", "075922.250000", "075927.234000", "075927.250000", "075932.234000", "075932.250000", "075932.250000", "075937.234000", "075937.250000", "075937.250000", "075942.234000", "075942.250000", "075947.234000", "075947.250000", "075947.250000", "075952.234000", "075952.250000", "075952.250000", "075957.234000", "075957.234000", "080002.234000", "080002.250000", "080002.250000", "080007.234000", "080007.250000", "080007.250000", "080012.234000", "080012.250000", "080012.250000", "080017.234000", "080017.234000", "080022.234000", "080022.250000", "080022.250000", "080027.234000", "080027.250000", "080027.250000", "080032.234000", "080032.250000", "080037.234000", "080037.250000", "080037.250000", "080042.234000", "080042.250000", "080047.234000", "080047.250000", "080047.250000", "080052.234000", "080052.250000", "080052.250000", "080057.234000", "080057.250000", "080057.250000", "080102.234000", "080102.250000", "080102.250000", "080107.234000", "080107.250000", "080112.234000", "080112.250000", "080112.250000", "080117.234000", "080117.250000", "080117.250000", "080122.234000", "080122.250000", "080122.250000", "080127.234000", "080127.250000", "080127.250000", "080132.234000", "080132.250000", "080137.234000", "080137.234000", "080137.250000", "080142.234000", "080142.250000", "080142.250000", "080147.234000", "080147.250000", "080147.250000", "080152.234000", "080152.250000", "080157.234000", "080157.250000", "080157.250000", "080202.234000", "080202.250000", "080202.250000", "080207.234000", "080207.250000", "080207.265000", "080212.234000", "080212.250000", "080212.250000", "080217.234000", "080217.250000", "080222.234000", "080222.250000", "080222.250000", "080227.234000", "080227.250000", "080227.250000", "080232.234000", "080232.250000", "080237.234000", "080237.250000", "080237.250000", "080242.234000", "080242.250000", "080242.250000", "080247.234000", "080247.250000", "080247.250000", "080252.234000", "080252.250000", "080252.250000", "080257.234000", "080257.250000", "080302.234000", "080302.250000", "080302.250000", "080302.250000", "080307.234000", "080307.250000", "080312.234000", "080312.250000", "080312.250000", "080317.234000", "080317.250000", "080317.250000", "080322.234000", "080322.250000", "080327.234000", "080327.250000", "080327.250000", "080332.234000", "080332.250000", "080332.250000", "080337.234000", "080337.250000", "080337.250000", "080342.234000", "080342.250000", "080347.234000", "080347.250000", "080347.250000", "080352.234000", "080352.250000", "080352.250000", "080357.234000", "080357.250000", "080357.250000", "080402.234000", "080402.250000", "080402.250000", "080407.234000", "080407.250000", "080412.234000", "080412.250000", "080412.250000", "080417.234000", "080417.250000", "080417.250000", "080422.234000", "080422.250000", "080427.234000", "080427.250000", "080427.250000", "080432.234000", "080432.250000", "080432.250000", "080437.234000", "080437.250000", "080437.250000", "080442.234000", "080442.250000", "080447.234000", "080447.250000", "080447.250000", "080452.234000", "080452.250000", "080452.250000", "080457.234000", "080457.250000", "080502.234000", "080502.250000", "080502.250000", "080507.234000", "080507.250000", "080507.250000", "080512.234000", "080512.250000", "080512.250000", "080517.234000", "080517.250000", "080517.250000", "080527.234000", "080527.250000", "080527.250000", "080527.250000", "080527.265000", "080532.234000", "080532.250000", "080532.250000", "080537.234000", "080537.250000", "080542.234000", "080542.250000", "080542.250000", "080547.234000", "080547.250000", "080547.250000", "080552.234000", "080552.250000", "080552.250000", "080557.234000", "080557.250000", "080557.250000", "080602.234000", "080602.250000", "080607.234000", "080607.250000", "080607.250000", "080608.281000"], "InstanceNumber": [1, 2, 3, 4, 5, 6, 7, 8, 9, 10, 11, 12, 13, 14, 15, 16, 17, 18, 19, 20, 21, 22, 23, 24, 25, 26, 27, 28, 29, 30, 31, 32, 33, 34, 35, 36, 37, 38, 39, 40, 41, 42, 43, 44, 45, 46, 47, 48, 49, 50, 51, 52, 53, 54, 55, 56, 57, 58, 59, 60, 61, 62, 63, 64, 65, 66, 67, 68, 69, 70, 71, 72, 73, 74, 75, 76, 77, 78, 79, 80, 81, 82, 83, 84, 85, 86, 87, 88, 89, 90, 91, 92, 93, 94, 95, 96, 97, 98, 99, 100, 101, 102, 103, 104, 105, 106, 107, 108, 109, 110, 111, 112, 113, 114, 115, 116, 117, 118, 119, 120, 121, 122, 123, 124, 125, 126, 127, 128, 129, 130, 131, 132, 133, 134, 135, 136, 137, 138, 139, 140, 141, 142, 143, 144, 145, 146, 147, 148, 149, 150, 151, 152, 153, 154, 155, 156, 157, 158, 159, 160, 161, 162, 163, 164, 165, 166, 167, 168, 169, 170, 171, 172, 173, 174, 175, 176, 177, 178, 179, 180, 181, 182, 183, 184, 185, 186, 187, 188, 189, 190, 191, 192, 193, 194, 195, 196, 197, 198, 199, 200, 201, 202, 203, 204, 205, 206, 207, 208, 209, 210, 211, 212, 213, 214, 215, 216, 217, 218, 219, 220, 221, 222, 223, 224, 225, 226, 227, 228, 229, 230, 231, 232, 233, 234, 235, 236, 237, 238, 239, 240, 241, 242, 243, 244, 245, 246, 247, 248, 249, 250, 251, 252, 253, 254, 255, 256, 257, 258, 259, 260, 261, 262, 263, 264, 265, 266, 267, 268, 269, 270, 271, 272, 273, 274, 275, 276, 277, 278, 279, 280, 281, 282, 283, 284, 285, 286, 287, 288, 289, 290, 291, 292, 293, 294, 295, 296, 297, 298, 299, 300, 301, 302, 303, 304, 305, 306, 307, 308, 309, 310, 311, 312, 313, 314, 315, 316, 317, 318, 319, 320, 321, 322, 323, 324, 325, 326, 327, 328, 329, 330, 331, 332, 333, 334, 335, 336, 337, 338, 339, 340, 341, 342, 343, 344, 345, 346, 347, 348, 349, 350, 351, 352, 353, 354, 355, 356, 357, 358, 359, 360, 361, 362, 363, 364, 365, 366, 367, 368, 369, 370, 371, 372, 373, 374, 375, 376, 377, 378, 379, 380], "LargestImagePixelValue": [26980, 26501, 25906, 26152, 25896, 25938, 25623, 25904, 25766, 26014, 25980, 25590, 25602, 25838, 25754, 25585, 25688, 25952, 25613, 25759, 26419, 25595, 25616, 25914, 25779, 25501, 25302, 25446, 25421, 25339, 25453, 25643, 25463, 25524, 25492, 25569, 25306, 25847, 25600, 25389, 25355, 25444, 25263, 25435, 25537, 25117, 25334, 25066, 25084, 25114, 25501, 25228, 25086, 25398, 25076, 25429, 25065, 25000, 25064, 25070, 24930, 24924, 25140, 25032, 25238, 24952, 25152, 25121, 25075, 24965, 24899, 25077, 24937, 25008, 24898, 25223, 25019, 25226, 24931, 24924, 24914, 25042, 24814, 24871, 25007, 24871, 25003, 24879, 24815, 25158, 25001, 24899, 25070, 24871, 24919, 25102, 24846, 24926, 24937, 24870, 24731, 24783, 24903, 24616, 25094, 24952, 24872, 24856, 24909, 24898, 25039, 24950, 24839, 25026, 24816, 24854, 24862, 24845, 25109, 24864, 24950, 24910, 24796, 25032, 24812, 24829, 24888, 25203, 24762, 24674, 24733, 24863, 24902, 24829, 25368, 24902, 24773, 24857, 24800, 24943, 25134, 25048, 24908, 24994, 24931, 25033, 24887, 24892, 25210, 24909, 24765, 24812, 24935, 24801, 24760, 25154, 24991, 24714, 24656, 24762, 24829, 25066, 25015, 24781, 24754, 24921, 25076, 24964, 25057, 24744, 25218, 25070, 25071, 25362, 25234, 24962, 24902, 25151, 24990, 25055, 25418, 25082, 24981, 24954, 24727, 24868, 24989, 25009, 25036, 25050, 25008, 25327, 24644, 24683, 24916, 25182, 24989, 24907, 25071, 25030, 25059, 24942, 24763, 24967, 24955, 25121, 25133, 24859, 24874, 24907, 24885, 24748, 25063, 24846, 24757, 24885, 24909, 24854, 25134, 25053, 25100, 25056, 24910, 24988, 24980, 24976, 25234, 25075, 25087, 25022, 24962, 24956, 25082, 25239, 25003, 24900, 24859, 25082, 25057, 24894, 25166, 24898, 25096, 25027, 24981, 24827, 24801, 24755, 25138, 25104, 24803, 24888, 24727, 24885, 24843, 24641, 24997, 24702, 24728, 24908, 24823, 24707, 24967, 25151, 25000, 24778, 24610, 24841